J_Peri,,Sample 2,,Sample 3,,Sample 4_EX_290.00,,Sample 4_EX_295.00,,Sample 4_EX_305.00,,Sample 4_EX_315.00,,Sample 4_EX_325.00,,Sample 4_EX_335.00,,Sample 4_EX_345.00,,Sample 4_EX_355.00,,Sample 4_EX_365.00,,Sample 4_EX_375.00,,Sample 4_EX_385.00,,Sample 4_EX_395.00,,Sample 4_EX_405.00,,Sample 4_EX_415.00,,Sample 4_EX_425.00,,Sample 4_EX_435.00,,Sample 4_EX_445.00,,Sample 4_EX_455.00,
Wavelength (nm),Intensity (a.u.),Wavelength (nm),Intensity (a.u.),Wavelength (nm),Intensity (a.u.),Wavelength (nm),Intensity (a.u.),Wavelength (nm),Intensity (a.u.),Wavelength (nm),Intensity (a.u.),Wavelength (nm),Intensity (a.u.),Wavelength (nm),Intensity (a.u.),Wavelength (nm),Intensity (a.u.),Wavelength (nm),Intensity (a.u.),Wavelength (nm),Intensity (a.u.),Wavelength (nm),Intensity (a.u.),Wavelength (nm),Intensity (a.u.),Wavelength (nm),Intensity (a.u.),Wavelength (nm),Intensity (a.u.),Wavelength (nm),Intensity (a.u.),Wavelength (nm),Intensity (a.u.),Wavelength (nm),Intensity (a.u.),Wavelength (nm),Intensity (a.u.),Wavelength (nm),Intensity (a.u.),Wavelength (nm),Intensity (a.u.)
465,13.04401398,465,678.8434448,465,565.5415039,465,581.9769897,465,666.0771484,465,633.7191772,465,572.973877,465,658.581604,465,704.7593994,465,686.1223755,465,665.5001831,465,592.1316528,465,611.7662354,465,554.2783813,465,507.5076294,465,429.7792358,465,380.6990967,465,328.864563,465,376.3373718,465,513.8121948,465,1000
466.0599976,12.05873966,466.0599976,624.3078003,466.0599976,549.1004639,466.0599976,559.1340332,466.0599976,628.4505615,466.0599976,613.7351685,466.0599976,565.0702515,466.0599976,622.7861328,466.0599976,667.8366699,466.0599976,668.9639893,466.0599976,649.0911255,466.0599976,580.3712158,466.0599976,603.2814941,466.0599976,529.3909912,466.0599976,493.2170715,466.0599976,414.475708,466.0599976,378.6684265,466.0599976,319.7955933,466.0599976,362.3218079,466.0599976,476.1574097,466.0599976,1000
466.9599915,10.98570824,466.9599915,572.3395996,466.9599915,540.5040283,466.9599915,525.7709351,466.9599915,614.586853,466.9599915,599.923645,466.9599915,559.1515503,466.9599915,622.4938965,466.9599915,682.7526245,466.9599915,662.9283447,466.9599915,609.3476563,466.9599915,579.1498413,466.9599915,599.8673706,466.9599915,524.8035889,466.9599915,482.9613037,466.9599915,419.3848877,466.9599915,359.5231934,466.9599915,314.1749573,466.9599915,351.431366,466.9599915,453.5300293,466.9599915,1000
468.0299988,10.21089554,468.0299988,522.6400146,468.0299988,529.0960083,468.0299988,519.0096436,468.0299988,599.0548706,468.0299988,593.7889404,468.0299988,556.9381714,468.0299988,617.5615234,468.0299988,655.4074707,468.0299988,636.0690918,468.0299988,615.7440796,468.0299988,570.6713257,468.0299988,584.916626,468.0299988,524.946228,468.0299988,470.4267273,468.0299988,403.2893372,468.0299988,356.9994812,468.0299988,311.7044067,468.0299988,333.7919617,468.0299988,420.1405334,468.0299988,1000
468.9299927,9.667060852,468.9299927,487.6052856,468.9299927,529.2325439,468.9299927,519.9367676,468.9299927,596.6692505,468.9299927,584.7837524,468.9299927,558.6390381,468.9299927,607.5720825,468.9299927,662.6953735,468.9299927,626.0114746,468.9299927,609.8457031,468.9299927,553.6928101,468.9299927,579.2197266,468.9299927,506.2359619,468.9299927,472.2467346,468.9299927,405.970459,468.9299927,354.6430969,468.9299927,305.3493042,468.9299927,330.2619629,468.9299927,404.5536804,468.9299927,832.9780884
470,9.030508995,470,458.1214905,470,514.8168335,470,483.6584778,470,568.4780884,470,570.204834,470,561.5430298,470,603.1002197,470,626.4229736,470,624.5803223,470,614.890625,470,563.5219116,470,564.2351074,470,500.1723633,470,458.2306824,470,395.513092,470,351.2673035,470,304.2924805,470,318.6009216,470,386.272583,470,691.3223877
471.0599976,8.434690475,471.0599976,431.1010742,471.0599976,509.5618896,471.0599976,469.6609192,471.0599976,560.3439331,471.0599976,559.2282715,471.0599976,536.4463501,471.0599976,578.9544678,471.0599976,630.6456299,471.0599976,610.8885498,471.0599976,597.8498535,471.0599976,554.8217163,471.0599976,566.0188599,471.0599976,493.8559875,471.0599976,456.8259277,471.0599976,395.7965698,471.0599976,347.4399414,471.0599976,301.4146118,471.0599976,313.7038574,471.0599976,369.3934326,471.0599976,637.9351196
471.9599915,8.082135201,471.9599915,408.8813171,471.9599915,503.2244873,471.9599915,452.2599792,471.9599915,534.7689819,471.9599915,549.9769287,471.9599915,535.93927,471.9599915,579.3070679,471.9599915,639.2247314,471.9599915,609.8352051,471.9599915,573.4627686,471.9599915,537.9593506,471.9599915,556.6796875,471.9599915,485.4979553,471.9599915,458.6322632,471.9599915,394.9613342,471.9599915,349.8198242,471.9599915,296.4833679,471.9599915,307.1455994,471.9599915,352.1573181,471.9599915,593.8961182
473.0299988,7.724202633,473.0299988,384.9811401,473.0299988,489.5287781,473.0299988,427.9570618,473.0299988,521.0142822,473.0299988,530.1712646,473.0299988,530.803833,473.0299988,575.4296875,473.0299988,619.8071289,473.0299988,606.6627197,473.0299988,564.8803101,473.0299988,534.1403809,473.0299988,546.1185913,473.0299988,482.2600403,473.0299988,453.3409119,473.0299988,395.9862366,473.0299988,340.3998718,473.0299988,302.0939331,473.0299988,305.0411682,473.0299988,341.0575562,473.0299988,542.597229
473.9299927,7.402644157,473.9299927,372.4573669,473.9299927,491.201416,473.9299927,434.469574,473.9299927,513.5197144,473.9299927,530.1717529,473.9299927,506.1025085,473.9299927,559.6991577,473.9299927,608.0140381,473.9299927,600.9453735,473.9299927,564.6361084,473.9299927,517.5701294,473.9299927,547.5870972,473.9299927,486.5724182,473.9299927,451.9490662,473.9299927,382.250061,473.9299927,344.7108765,473.9299927,298.9833374,473.9299927,303.0881653,473.9299927,330.769104,473.9299927,512.7952881
475,6.88732481,475,360.0406189,475,489.8696289,475,427.5533447,475,491.9457703,475,522.1294556,475,494.1531067,475,561.4435425,475,591.9467773,475,582.8762817,475,553.5847168,475,518.4251709,475,520.9497681,475,480.9343567,475,444.2937317,475,388.7814636,475,341.5533752,475,294.9810181,475,305.0586853,475,322.3525696,475,478.6993713
476.0599976,6.966010094,476.0599976,346.8946533,476.0599976,479.1678467,476.0599976,392.8372192,476.0599976,473.7942505,476.0599976,513.3748779,476.0599976,510.0219727,476.0599976,546.413147,476.0599976,576.8723145,476.0599976,570.1016846,476.0599976,550.7926025,476.0599976,510.1704712,476.0599976,524.0588379,476.0599976,480.0278015,476.0599976,445.385498,476.0599976,385.1555786,476.0599976,347.8678284,476.0599976,294.3503418,476.0599976,295.2050171,476.0599976,320.7999878,476.0599976,462.37677
476.9599915,6.778024673,476.9599915,339.4859009,476.9599915,481.0374451,476.9599915,403.19104,476.9599915,460.3703308,476.9599915,501.9516907,476.9599915,502.330658,476.9599915,566.5765381,476.9599915,581.409668,476.9599915,565.3521729,476.9599915,528.2057495,476.9599915,512.7093506,476.9599915,518.9089355,476.9599915,477.7646484,476.9599915,441.7698669,476.9599915,380.0734558,476.9599915,340.0058289,476.9599915,296.039856,476.9599915,305.7808228,476.9599915,323.0331421,476.9599915,443.2276001
478.0299988,6.484885693,478.0299988,334.1147766,478.0299988,471.4378357,478.0299988,392.5452576,478.0299988,462.9363403,478.0299988,496.9176636,478.0299988,487.2508545,478.0299988,554.9420776,478.0299988,559.7527466,478.0299988,557.3935547,478.0299988,539.2765503,478.0299988,509.4876404,478.0299988,512.8464355,478.0299988,472.2771606,478.0299988,440.1716003,478.0299988,382.7075806,478.0299988,339.7822876,478.0299988,300.1213379,478.0299988,299.8507996,478.0299988,313.7058411,478.0299988,424.053894
478.9299927,6.498572826,478.9299927,334.657135,478.9299927,472.4500122,478.9299927,377.5001526,478.9299927,453.0730591,478.9299927,484.1879883,478.9299927,472.2147217,478.9299927,560.2982788,478.9299927,565.902832,478.9299927,540.0771484,478.9299927,529.2195435,478.9299927,506.4249573,478.9299927,531.8221436,478.9299927,466.7573242,478.9299927,447.4551086,478.9299927,375.4088745,478.9299927,341.8786316,478.9299927,298.3647156,478.9299927,299.1171875,478.9299927,313.0957336,478.9299927,409.1676025
480,6.705435276,480,331.1349792,480,471.7806091,480,374.2593079,480,431.9833374,480,471.7032166,480,463.1047974,480,572.7507935,480,568.1376343,480,528.4099731,480,524.2954712,480,484.4706726,480,516.1951904,480,466.360321,480,444.0054321,480,386.2671509,480,349.0994568,480,300.6798096,480,306.4812317,480,314.4890442,480,408.8891907
481.0599976,6.817413807,481.0599976,332.7699585,481.0599976,480.5310974,481.0599976,357.0950012,481.0599976,436.3130188,481.0599976,463.2576294,481.0599976,454.800415,481.0599976,551.4697266,481.0599976,546.1878052,481.0599976,530.9672852,481.0599976,519.3579102,481.0599976,486.2691345,481.0599976,523.4069214,481.0599976,479.4504395,481.0599976,433.3936768,481.0599976,381.6322021,481.0599976,356.0784607,481.0599976,307.6141357,481.0599976,306.7583313,481.0599976,319.1977539,481.0599976,405.6306458
481.9599915,6.838419914,481.9599915,333.5588379,481.9599915,478.057373,481.9599915,344.2181396,481.9599915,426.1793823,481.9599915,458.6716309,481.9599915,445.0759277,481.9599915,557.0328369,481.9599915,554.4953613,481.9599915,538.1749878,481.9599915,508.5415344,481.9599915,510.3846741,481.9599915,518.2293091,481.9599915,477.7950745,481.9599915,445.6957703,481.9599915,384.3365784,481.9599915,356.3858032,481.9599915,310.2423096,481.9599915,313.0636902,481.9599915,318.6593933,481.9599915,404.2833557
483.0299988,7.086157799,483.0299988,335.3277893,483.0299988,487.5453186,483.0299988,341.4390259,483.0299988,413.8766174,483.0299988,453.9931335,483.0299988,441.9438477,483.0299988,551.6589355,483.0299988,543.8297119,483.0299988,516.8372192,483.0299988,500.0236511,483.0299988,480.1008911,483.0299988,533.052063,483.0299988,484.2339478,483.0299988,452.6231079,483.0299988,388.2621765,483.0299988,363.6236572,483.0299988,317.120697,483.0299988,313.0714111,483.0299988,327.1585388,483.0299988,399.083313
483.9299927,7.107130527,483.9299927,345.3783875,483.9299927,487.5813293,483.9299927,332.6165161,483.9299927,401.2131653,483.9299927,442.0517883,483.9299927,436.029541,483.9299927,531.0357666,483.9299927,536.0114746,483.9299927,524.1872559,483.9299927,504.902832,483.9299927,484.345459,483.9299927,522.2338867,483.9299927,493.1791992,483.9299927,451.3384705,483.9299927,382.8084717,483.9299927,372.6880493,483.9299927,326.414978,483.9299927,321.5240173,483.9299927,330.9536133,483.9299927,399.1444092
485,7.164708614,485,347.9741211,485,482.4151001,485,333.7341614,485,390.5482788,485,433.5830994,485,435.9771729,485,516.2096558,485,523.0772705,485,516.9388428,485,497.2221985,485,474.9328003,485,517.2787476,485,479.0995483,485,447.3056335,485,388.8107605,485,369.8447876,485,321.9042358,485,336.2242737,485,335.0859985,485,407.4996033
486.0599976,7.352722168,486.0599976,351.0973816,486.0599976,487.3728333,486.0599976,344.2841492,486.0599976,392.4298706,486.0599976,435.6835938,486.0599976,416.5945435,486.0599976,489.3079529,486.0599976,540.0164185,486.0599976,495.8879089,486.0599976,497.3465271,486.0599976,475.1742859,486.0599976,514.1710205,486.0599976,484.4250183,486.0599976,448.0801697,486.0599976,393.0290222,486.0599976,373.7762756,486.0599976,328.2961426,486.0599976,334.5959167,486.0599976,342.5076294,486.0599976,406.0500488
486.9599915,7.417311192,486.9599915,355.2106018,486.9599915,492.4543152,486.9599915,315.861084,486.9599915,390.5254211,486.9599915,437.9903564,486.9599915,427.0938416,486.9599915,482.2372742,486.9599915,546.0311279,486.9599915,507.9835205,486.9599915,473.3652344,486.9599915,484.1917419,486.9599915,522.5545654,486.9599915,486.1443481,486.9599915,450.4421692,486.9599915,387.9641418,486.9599915,372.8893738,486.9599915,335.2017822,486.9599915,340.2831116,486.9599915,347.6743469,486.9599915,404.6978455
488.0299988,7.438621521,488.0299988,360.8879089,488.0299988,494.6599731,488.0299988,314.9733887,488.0299988,384.8252563,488.0299988,418.8282166,488.0299988,424.822998,488.0299988,456.3211975,488.0299988,554.0471802,488.0299988,494.3959961,488.0299988,473.9776611,488.0299988,477.1051025,488.0299988,525.1421509,488.0299988,486.1040649,488.0299988,450.7442017,488.0299988,399.8656616,488.0299988,381.8557434,488.0299988,341.2718811,488.0299988,343.6714172,488.0299988,352.2400208,488.0299988,412.3861389
488.9299927,7.62601614,488.9299927,365.039917,488.9299927,490.8655701,488.9299927,311.7792664,488.9299927,381.7776794,488.9299927,417.6849365,488.9299927,411.3385315,488.9299927,463.8764343,488.9299927,570.1854248,488.9299927,512.9541016,488.9299927,480.8709412,488.9299927,476.9697876,488.9299927,527.8959961,488.9299927,490.647644,488.9299927,458.9056091,488.9299927,393.4081116,488.9299927,375.102478,488.9299927,347.0136108,488.9299927,350.2939453,488.9299927,355.3924255,488.9299927,412.4153137
490,7.502606392,490,364.0214233,490,486.979187,490,314.0005493,490,377.8348083,490,418.1910706,490,410.0910034,490,449.2118225,490,607.9180908,490,485.5432739,490,485.2856445,490,472.2914124,490,519.7347412,490,490.6750793,490,455.7133179,490,393.8599548,490,385.2017822,490,349.8209534,490,357.2015991,490,362.7650452,490,408.1213074
491.0599976,7.469520569,491.0599976,372.0170898,491.0599976,485.9945068,491.0599976,298.4492188,491.0599976,379.9920654,491.0599976,417.2995911,491.0599976,398.1627808,491.0599976,441.4761658,491.0599976,662.7993774,491.0599976,491.0853882,491.0599976,473.4076233,491.0599976,477.1578064,491.0599976,510.8655701,491.0599976,491.6641541,491.0599976,467.6336975,491.0599976,388.0453491,491.0599976,388.2442932,491.0599976,354.4534607,491.0599976,360.6218872,491.0599976,362.9493408,491.0599976,407.3672791
491.9599915,7.634538651,491.9599915,373.9298706,491.9599915,483.703186,491.9599915,305.1860046,491.9599915,365.9718323,491.9599915,412.6865845,491.9599915,403.8768616,491.9599915,438.6187439,491.9599915,668.7408447,491.9599915,479.4530945,491.9599915,487.4055786,491.9599915,478.4091187,491.9599915,528.1738892,491.9599915,479.6466675,491.9599915,455.6711121,491.9599915,392.1882019,491.9599915,381.4072571,491.9599915,361.3018799,491.9599915,363.7090759,491.9599915,370.4068604,491.9599915,408.8262024
493.0299988,7.776220322,493.0299988,376.6399536,493.0299988,489.4959412,493.0299988,298.8079834,493.0299988,354.7877197,493.0299988,396.0621338,493.0299988,400.7796021,493.0299988,422.0393372,493.0299988,681.734314,493.0299988,479.8521729,493.0299988,478.5509033,493.0299988,487.3459473,493.0299988,516.3641357,493.0299988,489.2696228,493.0299988,453.2768555,493.0299988,393.0185852,493.0299988,384.787323,493.0299988,367.6503601,493.0299988,372.0172119,493.0299988,371.8470154,493.0299988,404.8781433
493.9299927,7.694108009,493.9299927,384.3862305,493.9299927,494.8943787,493.9299927,299.6286621,493.9299927,363.128418,493.9299927,385.8952942,493.9299927,390.7651978,493.9299927,432.9430237,493.9299927,717.1294556,493.9299927,478.1751709,493.9299927,487.4466248,493.9299927,470.1113892,493.9299927,524.1603394,493.9299927,487.1810303,493.9299927,450.023468,493.9299927,393.7995911,493.9299927,370.7668152,493.9299927,371.3565674,493.9299927,379.6935425,493.9299927,383.397522,493.9299927,406.5669556
495,7.830682278,495,393.8763733,495,492.4515381,495,298.8565979,495,351.0150146,495,378.5308838,495,388.0805969,495,419.515625,495,726.4285278,495,484.0740967,495,486.2697754,495,476.4007874,495,522.482666,495,494.9571838,495,443.9327393,495,394.3737183,495,381.2384644,495,376.3518677,495,379.5379333,495,393.2293701,495,410.5455627
496.0599976,8.202905655,496.0599976,395.0374146,496.0599976,496.6163635,496.0599976,293.3681946,496.0599976,350.7165527,496.0599976,391.4383545,496.0599976,384.049469,496.0599976,401.4022217,496.0599976,726.1936035,496.0599976,483.5819397,496.0599976,470.5621948,496.0599976,477.868866,496.0599976,527.4182739,496.0599976,491.1126404,496.0599976,452.666748,496.0599976,393.6400452,496.0599976,390.3141174,496.0599976,377.0974426,496.0599976,389.6380005,496.0599976,398.9847717,496.0599976,412.8695068
496.9599915,8.32460022,496.9599915,401.5676575,496.9599915,500.4586487,496.9599915,293.5639038,496.9599915,348.2581787,496.9599915,384.6890564,496.9599915,390.6163025,496.9599915,407.8383484,496.9599915,689.1105347,496.9599915,463.3742676,496.9599915,474.211792,496.9599915,477.4807434,496.9599915,534.0737915,496.9599915,497.7225342,496.9599915,457.2879639,496.9599915,388.668396,496.9599915,382.8708801,496.9599915,387.0930176,496.9599915,388.3282166,496.9599915,403.9776306,496.9599915,420.4909668
498.0299988,8.482282639,498.0299988,407.5923767,498.0299988,496.4894409,498.0299988,292.6516113,498.0299988,344.7139893,498.0299988,383.272644,498.0299988,383.3100891,498.0299988,404.2016296,498.0299988,664.284668,498.0299988,448.1160889,498.0299988,485.6704407,498.0299988,481.0391235,498.0299988,534.576416,498.0299988,504.7128296,498.0299988,452.3941345,498.0299988,385.9267273,498.0299988,386.3777771,498.0299988,388.392395,498.0299988,392.4179993,498.0299988,412.5299988,498.0299988,428.9575195
498.9299927,8.523283958,498.9299927,417.3278198,498.9299927,505.0891724,498.9299927,287.2365723,498.9299927,335.8618774,498.9299927,369.3220215,498.9299927,370.4577026,498.9299927,413.8202515,498.9299927,638.3178711,498.9299927,460.1059875,498.9299927,483.5301819,498.9299927,478.2349854,498.9299927,534.2590942,498.9299927,496.7073364,498.9299927,461.2097168,498.9299927,391.0343018,498.9299927,392.5179138,498.9299927,394.4968262,498.9299927,396.9070129,498.9299927,418.9777222,498.9299927,424.5012512
500,8.822473526,500,420.131073,500,500.026886,500,281.1497803,500,333.2490845,500,375.0645752,500,371.3476868,500,418.658844,500,589.2423096,500,463.0354004,500,479.7679749,500,488.047699,500,536.5942993,500,490.366394,500,445.4137268,500,394.7438965,500,384.7255249,500,393.0994263,500,410.9678345,500,426.1417542,500,433.7814026
501.0400085,8.652908325,501.0400085,435.5047302,501.0400085,502.4039001,501.0400085,283.4663391,501.0400085,326.4579773,501.0400085,361.5326843,501.0400085,361.4072266,501.0400085,396.6264038,501.0400085,551.5845947,501.0400085,476.1895752,501.0400085,485.5748291,501.0400085,486.7382507,501.0400085,552.1627197,501.0400085,492.2223206,501.0400085,450.9784546,501.0400085,392.9120483,501.0400085,386.2764893,501.0400085,403.4062805,501.0400085,416.2991638,501.0400085,430.5446472,501.0400085,443.599823
501.9400024,8.549513817,501.9400024,436.7430725,501.9400024,509.5489502,501.9400024,273.3289795,501.9400024,313.7159424,501.9400024,362.1842957,501.9400024,362.0252075,501.9400024,396.7992249,501.9400024,516.1984863,501.9400024,466.1513672,501.9400024,485.5868835,501.9400024,482.7027283,501.9400024,539.288208,501.9400024,497.699707,501.9400024,454.8360291,501.9400024,390.1463623,501.9400024,397.0045776,501.9400024,402.7790833,501.9400024,418.3810425,501.9400024,441.2149658,501.9400024,449.2918091
502.980011,9.265728951,502.980011,443.9591064,502.980011,515.4819336,502.980011,274.6156006,502.980011,315.5203857,502.980011,356.4464417,502.980011,352.0575867,502.980011,386.6176758,502.980011,482.5034485,502.980011,454.7948914,502.980011,480.4043579,502.980011,484.6834106,502.980011,562.5090332,502.980011,494.1512756,502.980011,465.7266846,502.980011,398.2184143,502.980011,397.815155,502.980011,408.1798401,502.980011,427.8606262,502.980011,443.3634033,502.980011,449.8912048
504.019989,9.269254684,504.019989,453.6334839,504.019989,515.0465088,504.019989,277.5755615,504.019989,311.6878967,504.019989,342.6369019,504.019989,351.9909668,504.019989,392.957489,504.019989,482.9551697,504.019989,460.5726624,504.019989,467.9400024,504.019989,487.7892456,504.019989,543.7908325,504.019989,509.0299377,504.019989,457.149353,504.019989,396.8236084,504.019989,395.8524475,504.019989,407.8834534,504.019989,432.7351074,504.019989,448.0228577,504.019989,458.5571594
505.0700073,9.361216545,505.0700073,462.5492249,505.0700073,518.9579468,505.0700073,273.6238098,505.0700073,302.3845215,505.0700073,344.6293945,505.0700073,337.9637756,505.0700073,385.7988281,505.0700073,460.5338745,505.0700073,463.1608582,505.0700073,473.5310059,505.0700073,492.1293945,505.0700073,553.5841675,505.0700073,510.2391357,505.0700073,463.2086182,505.0700073,385.5515442,505.0700073,398.0183411,505.0700073,417.0969238,505.0700073,438.8598938,505.0700073,454.8700867,505.0700073,459.3440552
505.9700012,9.668755531,505.9700012,462.4916687,505.9700012,522.2009277,505.9700012,270.2072144,505.9700012,291.879364,505.9700012,341.6313171,505.9700012,324.799469,505.9700012,374.110321,505.9700012,432.1917725,505.9700012,484.3804932,505.9700012,472.3244324,505.9700012,494.446228,505.9700012,556.8927612,505.9700012,508.0574646,505.9700012,456.4208679,505.9700012,401.9090881,505.9700012,402.9584045,505.9700012,409.1048279,505.9700012,439.4179077,505.9700012,460.9000244,505.9700012,465.9570007
507.0100098,9.804528236,507.0100098,470.3465576,507.0100098,521.1334229,507.0100098,268.3725281,507.0100098,294.1016846,507.0100098,332.221283,507.0100098,333.881134,507.0100098,377.0898132,507.0100098,424.4288025,507.0100098,455.3386536,507.0100098,462.052063,507.0100098,480.8295898,507.0100098,557.7173462,507.0100098,512.6849365,507.0100098,447.8837585,507.0100098,395.1369019,507.0100098,402.348877,507.0100098,415.3769531,507.0100098,444.0351257,507.0100098,467.2444458,507.0100098,476.4753113
508.0499878,9.644816399,508.0499878,472.4230957,508.0499878,521.3972168,508.0499878,260.2879333,508.0499878,284.5697021,508.0499878,328.267334,508.0499878,336.390686,508.0499878,380.1878662,508.0499878,422.9558411,508.0499878,466.6307983,508.0499878,458.1555176,508.0499878,491.2766418,508.0499878,548.0899658,508.0499878,514.7600098,508.0499878,458.8396301,508.0499878,399.7052612,508.0499878,399.4969482,508.0499878,417.9273682,508.0499878,448.5074768,508.0499878,480.3277893,508.0499878,482.3666382
508.9500122,9.623567581,508.9500122,477.6702881,508.9500122,520.4355469,508.9500122,261.5730286,508.9500122,284.1104431,508.9500122,311.4582825,508.9500122,324.1041565,508.9500122,363.4108276,508.9500122,410.6489868,508.9500122,470.5614014,508.9500122,465.5057373,508.9500122,483.6994019,508.9500122,546.6572876,508.9500122,508.3221741,508.9500122,451.1444397,508.9500122,395.398407,508.9500122,402.7229919,508.9500122,424.475647,508.9500122,451.2364502,508.9500122,477.7437439,508.9500122,484.4572144
510,9.977787018,510,477.333252,510,523.753418,510,260.086731,510,278.0923462,510,318.651886,510,320.7001038,510,349.7203369,510,419.7432251,510,463.1390076,510,464.4562988,510,469.1272888,510,559.4263916,510,511.2319031,510,448.7285767,510,398.7746887,510,397.6483765,510,415.7478333,510,450.247345,510,481.2377625,510,487.1355896
511.0400085,9.960251808,511.0400085,482.0906372,511.0400085,524.0454712,511.0400085,250.4866943,511.0400085,280.7704773,511.0400085,308.9248962,511.0400085,313.6564026,511.0400085,353.1784973,511.0400085,399.194519,511.0400085,445.8108215,511.0400085,459.2654724,511.0400085,465.6924744,511.0400085,552.3562622,511.0400085,511.1219177,511.0400085,447.0403137,511.0400085,392.2332764,511.0400085,400.6167603,511.0400085,423.3881836,511.0400085,451.2155762,511.0400085,485.0806274,511.0400085,485.5219421
511.9400024,9.731347084,511.9400024,481.7745667,511.9400024,525.4777222,511.9400024,248.094162,511.9400024,274.7516785,511.9400024,305.172821,511.9400024,308.4623718,511.9400024,334.8244934,511.9400024,392.5153503,511.9400024,435.8311768,511.9400024,453.3874207,511.9400024,467.5323181,511.9400024,557.7480469,511.9400024,512.9710083,511.9400024,433.3269348,511.9400024,386.2194214,511.9400024,397.5991821,511.9400024,419.2084656,511.9400024,453.9368896,511.9400024,482.9133301,511.9400024,486.2983398
512.9799805,9.744353294,512.9799805,482.6404724,512.9799805,519.0637207,512.9799805,248.0249176,512.9799805,269.0411377,512.9799805,291.4104309,512.9799805,319.6749878,512.9799805,325.0939331,512.9799805,397.9935913,512.9799805,411.0934448,512.9799805,456.5157166,512.9799805,463.2488098,512.9799805,545.1834106,512.9799805,519.8880005,512.9799805,436.4578857,512.9799805,378.0264282,512.9799805,396.1286316,512.9799805,414.8137512,512.9799805,444.7115479,512.9799805,483.8936768,512.9799805,488.8698425
514.0200195,10.03235912,514.0200195,482.5548096,514.0200195,514.9014893,514.0200195,245.5169067,514.0200195,276.8475342,514.0200195,298.8985291,514.0200195,304.5533752,514.0200195,340.2550049,514.0200195,383.5261841,514.0200195,407.6960754,514.0200195,451.4657898,514.0200195,466.3586121,514.0200195,546.6046143,514.0200195,518.0457764,514.0200195,435.3356934,514.0200195,384.8480225,514.0200195,392.544281,514.0200195,419.8319702,514.0200195,454.2953186,514.0200195,486.7362366,514.0200195,491.2456665
515.0700073,9.860732079,515.0700073,485.2823486,515.0700073,514.5391235,515.0700073,240.9281158,515.0700073,273.7565613,515.0700073,298.9219666,515.0700073,299.1672363,515.0700073,341.557312,515.0700073,400.2594604,515.0700073,404.592926,515.0700073,436.1818848,515.0700073,452.1481628,515.0700073,537.7523804,515.0700073,517.3823853,515.0700073,440.1942749,515.0700073,384.1964722,515.0700073,390.0899353,515.0700073,421.8356018,515.0700073,451.5810547,515.0700073,482.8942566,515.0700073,481.9529419
515.9699707,9.880723,515.9699707,482.0506592,515.9699707,512.217041,515.9699707,248.1675262,515.9699707,268.4212036,515.9699707,291.0618591,515.9699707,296.526123,515.9699707,319.545105,515.9699707,383.4278259,515.9699707,400.4064026,515.9699707,439.211731,515.9699707,449.7922058,515.9699707,532.8357544,515.9699707,507.2075806,515.9699707,435.7579956,515.9699707,383.8114929,515.9699707,393.9294128,515.9699707,417.5439453,515.9699707,450.9847412,515.9699707,481.7768555,515.9699707,491.8597412
517.0100098,9.678382874,517.0100098,482.520813,517.0100098,512.0377808,517.0100098,242.7263794,517.0100098,264.4256287,517.0100098,292.8849792,517.0100098,297.4581909,517.0100098,312.934967,517.0100098,380.6121826,517.0100098,396.3667297,517.0100098,440.3918457,517.0100098,452.3285828,517.0100098,521.1463623,517.0100098,505.6474915,517.0100098,429.7008362,517.0100098,371.2883911,517.0100098,392.0696411,517.0100098,413.2001648,517.0100098,446.0008545,517.0100098,479.928009,517.0100098,484.5542603
518.0499878,9.936070442,518.0499878,482.7260742,518.0499878,510.509552,518.0499878,241.5817261,518.0499878,262.4032288,518.0499878,283.7095642,518.0499878,284.8362427,518.0499878,328.577179,518.0499878,375.9642944,518.0499878,373.6509094,518.0499878,426.5324402,518.0499878,449.8482971,518.0499878,515.7955933,518.0499878,502.9401855,518.0499878,431.0757446,518.0499878,368.8182983,518.0499878,384.3894958,518.0499878,408.9595642,518.0499878,440.3520813,518.0499878,479.7805786,518.0499878,479.723938
518.9500122,9.888353348,518.9500122,476.5714417,518.9500122,502.4891357,518.9500122,233.3555298,518.9500122,256.5959778,518.9500122,279.2457581,518.9500122,286.9615479,518.9500122,321.5235596,518.9500122,369.1550293,518.9500122,389.5011292,518.9500122,413.4706726,518.9500122,429.5240173,518.9500122,498.8948059,518.9500122,488.0388184,518.9500122,423.1386719,518.9500122,365.8320923,518.9500122,377.7429504,518.9500122,408.4663391,518.9500122,439.2520752,518.9500122,473.5128479,518.9500122,478.3077393
520,9.594937325,520,478.2905579,520,499.9611511,520,241.0049896,520,257.4853516,520,279.2867432,520,284.0552063,520,313.8952332,520,372.04776,520,377.385376,520,409.046814,520,430.9346313,520,488.944397,520,484.459259,520,415.7142639,520,363.9062805,520,371.3408508,520,405.4700317,520,439.2840271,520,477.5768433,520,480.5485229
521.0599976,9.659623146,521.0599976,475.2170105,521.0599976,494.2372131,521.0599976,235.3494415,521.0599976,252.9469452,521.0599976,270.7449951,521.0599976,282.4700623,521.0599976,317.9036865,521.0599976,359.6360168,521.0599976,378.9025269,521.0599976,398.1358032,521.0599976,425.4110413,521.0599976,478.9281311,521.0599976,469.5300598,521.0599976,415.2215271,521.0599976,361.1289368,521.0599976,366.952179,521.0599976,400.4655457,521.0599976,429.3390808,521.0599976,472.460022,521.0599976,482.3385925
521.960022,9.669043541,521.960022,468.6245728,521.960022,487.4890137,521.960022,230.7194366,521.960022,253.7149811,521.960022,275.8656311,521.960022,274.6263123,521.960022,319.2879639,521.960022,356.1169739,521.960022,362.6242676,521.960022,399.3048706,521.960022,418.3641052,521.960022,474.8693237,521.960022,479.95578,521.960022,415.1585693,521.960022,356.6956482,521.960022,358.7756042,521.960022,399.8855286,521.960022,429.7841797,521.960022,466.2399902,521.960022,472.6092529
523.0300293,9.207439423,523.0300293,470.6799011,523.0300293,484.0585938,523.0300293,226.8382874,523.0300293,249.5311127,523.0300293,272.7155151,523.0300293,274.3490601,523.0300293,299.4101868,523.0300293,353.3474426,523.0300293,363.9278564,523.0300293,405.293335,523.0300293,411.3042297,523.0300293,463.9841919,523.0300293,488.7749023,523.0300293,415.3280334,523.0300293,349.0055237,523.0300293,370.7938232,523.0300293,394.3089294,523.0300293,426.6218872,523.0300293,468.6905518,523.0300293,472.5092468
523.9299927,9.641201019,523.9299927,467.7980652,523.9299927,479.289856,523.9299927,224.1107483,523.9299927,246.1547241,523.9299927,258.3319702,523.9299927,275.0965576,523.9299927,310.0633545,523.9299927,337.8544312,523.9299927,355.0455933,523.9299927,395.0149231,523.9299927,419.6477661,523.9299927,454.614624,523.9299927,477.651123,523.9299927,403.8238831,523.9299927,350.7154236,523.9299927,362.1768799,523.9299927,386.7111511,523.9299927,421.4285583,523.9299927,463.1543274,523.9299927,468.2046204
525,9.418135643,525,466.2153015,525,463.9251099,525,227.5102386,525,250.3112793,525,265.2373352,525,271.182251,525,298.2540894,525,331.7870178,525,357.2840271,525,390.454071,525,403.847168,525,462.0839539,525,480.9644165,525,398.7400208,525,344.1846008,525,362.3563232,525,384.1608276,525,424.3312988,525,458.1547241,525,457.8046875
526.0599976,9.250670433,526.0599976,461.6312256,526.0599976,456.1409607,526.0599976,217.2059479,526.0599976,228.5927277,526.0599976,250.1904144,526.0599976,277.7910156,526.0599976,294.1725769,526.0599976,336.2161255,526.0599976,349.1110535,526.0599976,378.4346008,526.0599976,406.9169617,526.0599976,454.0105286,526.0599976,476.0976868,526.0599976,397.3451233,526.0599976,336.8109741,526.0599976,359.2673645,526.0599976,379.961853,526.0599976,414.7290649,526.0599976,449.5349426,526.0599976,463.2993774
526.960022,9.205101967,526.960022,458.3237305,526.960022,450.3842163,526.960022,212.6873016,526.960022,241.8932495,526.960022,246.6487122,526.960022,265.7765503,526.960022,291.1755371,526.960022,334.1198425,526.960022,341.7797241,526.960022,379.8378906,526.960022,395.0250854,526.960022,458.5321045,526.960022,481.4958191,526.960022,383.9964905,526.960022,333.6323242,526.960022,350.1705933,526.960022,375.1101685,526.960022,413.9673462,526.960022,463.8688965,526.960022,461.3638611
528.0300293,9.209489822,528.0300293,452.1858826,528.0300293,439.8281555,528.0300293,216.9510498,528.0300293,237.142807,528.0300293,247.9503632,528.0300293,262.7310791,528.0300293,293.3479309,528.0300293,315.0067444,528.0300293,345.5474243,528.0300293,361.8880005,528.0300293,391.7927856,528.0300293,446.8546753,528.0300293,471.2534485,528.0300293,386.0429382,528.0300293,338.6719971,528.0300293,349.4165344,528.0300293,374.6987915,528.0300293,405.0107422,528.0300293,452.436554,528.0300293,451.1432495
528.9299927,9.340000153,528.9299927,455.4091187,528.9299927,435.972168,528.9299927,211.9249725,528.9299927,232.6097565,528.9299927,244.5319061,528.9299927,253.7153931,528.9299927,280.6893005,528.9299927,318.5238037,528.9299927,340.9053345,528.9299927,373.0939636,528.9299927,386.9647217,528.9299927,441.3061218,528.9299927,458.614624,528.9299927,377.4493713,528.9299927,339.6285095,528.9299927,340.1635437,528.9299927,368.3050232,528.9299927,402.3591309,528.9299927,450.0593872,528.9299927,459.1195984
530,9.113578796,530,446.3667603,530,432.4056702,530,202.3239441,530,231.4508667,530,239.9908752,530,249.7077637,530,284.0078735,530,300.0044861,530,327.9413757,530,356.6336975,530,381.224823,530,422.0917969,530,449.5059509,530,380.8674316,530,337.0426331,530,339.8565674,530,366.7575378,530,396.3962402,530,441.0774536,530,444.8025513
531.039978,9.013764381,531.039978,441.1053772,531.039978,419.4362488,531.039978,202.6389008,531.039978,229.095108,531.039978,241.5167084,531.039978,246.651123,531.039978,281.9057617,531.039978,296.5755615,531.039978,319.3781738,531.039978,353.2523193,531.039978,377.4507446,531.039978,427.6982117,531.039978,447.6246643,531.039978,369.6201477,531.039978,331.4521484,531.039978,334.5682373,531.039978,362.4398193,531.039978,394.6889038,531.039978,441.726532,531.039978,440.0106201
531.9400024,8.835165024,531.9400024,439.1838684,531.9400024,415.0580444,531.9400024,206.1172943,531.9400024,224.96315,531.9400024,240.1466217,531.9400024,242.9914551,531.9400024,272.9596863,531.9400024,297.7842407,531.9400024,321.0717773,531.9400024,342.6954346,531.9400024,369.3902588,531.9400024,420.3652954,531.9400024,439.7878113,531.9400024,366.9387512,531.9400024,323.2840576,531.9400024,331.5675964,531.9400024,358.6805725,531.9400024,386.1339111,531.9400024,429.6328735,531.9400024,446.0516052
532.9799805,8.569684029,532.9799805,431.9620361,532.9799805,409.5640869,532.9799805,201.6477966,532.9799805,221.1623688,532.9799805,246.0411682,532.9799805,249.8023987,532.9799805,266.7705688,532.9799805,282.4988708,532.9799805,314.7203674,532.9799805,337.1740417,532.9799805,361.4525146,532.9799805,410.8021851,532.9799805,438.1084595,532.9799805,368.5859375,532.9799805,317.3249512,532.9799805,331.4038391,532.9799805,354.8567505,532.9799805,381.4447632,532.9799805,423.6217041,532.9799805,435.0750122
534.0200195,8.512435913,534.0200195,428.197937,534.0200195,401.6696167,534.0200195,201.0396423,534.0200195,217.3638458,534.0200195,234.298233,534.0200195,238.4115906,534.0200195,268.0862427,534.0200195,282.2764893,534.0200195,309.0575562,534.0200195,337.4489136,534.0200195,366.651123,534.0200195,401.5474548,534.0200195,422.6883545,534.0200195,362.1279297,534.0200195,316.9441528,534.0200195,318.5083618,534.0200195,348.918335,534.0200195,378.8292542,534.0200195,412.8523254,534.0200195,431.2457886
535.0700073,8.605539322,535.0700073,421.3439331,535.0700073,395.244873,535.0700073,195.7972412,535.0700073,220.4124298,535.0700073,224.8067627,535.0700073,238.7024231,535.0700073,260.6416931,535.0700073,278.7826538,535.0700073,312.5514221,535.0700073,316.6973572,535.0700073,365.1162109,535.0700073,389.9751282,535.0700073,403.8033752,535.0700073,345.6406555,535.0700073,317.2249146,535.0700073,323.1713562,535.0700073,344.0328979,535.0700073,371.3560791,535.0700073,413.2899475,535.0700073,424.7775269
535.9699707,8.422621727,535.9699707,416.7296753,535.9699707,390.0611877,535.9699707,188.8909607,535.9699707,212.1286469,535.9699707,235.2356567,535.9699707,225.6525116,535.9699707,254.598175,535.9699707,264.756073,535.9699707,299.7505493,535.9699707,326.2590942,535.9699707,347.6863098,535.9699707,397.4034424,535.9699707,389.9474792,535.9699707,355.4052429,535.9699707,313.3526611,535.9699707,308.3244324,535.9699707,341.3180237,535.9699707,366.1350708,535.9699707,412.5515137,535.9699707,422.1016541
537.0100098,8.228933334,537.0100098,408.6047974,537.0100098,380.3813477,537.0100098,184.8850098,537.0100098,206.0767822,537.0100098,224.5327606,537.0100098,232.2125244,537.0100098,243.7242584,537.0100098,261.4160156,537.0100098,293.862915,537.0100098,325.4300537,537.0100098,347.8288879,537.0100098,382.3715515,537.0100098,393.18927,537.0100098,343.9143677,537.0100098,296.9997864,537.0100098,307.5015869,537.0100098,333.2666016,537.0100098,364.747406,537.0100098,402.3362122,537.0100098,411.8835754
538.0499878,8.17807579,538.0499878,407.476593,538.0499878,373.6044922,538.0499878,192.5645752,538.0499878,208.5850067,538.0499878,234.8957672,538.0499878,232.0105133,538.0499878,244.8587036,538.0499878,261.7665405,538.0499878,295.9905396,538.0499878,319.5727844,538.0499878,332.7305603,538.0499878,381.3859253,538.0499878,382.0822754,538.0499878,349.5339661,538.0499878,302.0849915,538.0499878,311.6010132,538.0499878,332.9330139,538.0499878,361.9571838,538.0499878,402.4342346,538.0499878,403.7151184
538.9500122,7.736068249,538.9500122,400.0310669,538.9500122,373.9363403,538.9500122,184.2359161,538.9500122,205.3770752,538.9500122,224.9629669,538.9500122,235.6247406,538.9500122,246.1758575,538.9500122,264.174408,538.9500122,292.8963623,538.9500122,309.3313599,538.9500122,329.3106079,538.9500122,369.8546753,538.9500122,380.788147,538.9500122,339.1951904,538.9500122,286.299469,538.9500122,297.7455444,538.9500122,326.1104126,538.9500122,358.1555176,538.9500122,394.2286072,538.9500122,400.8989258
540,7.849262238,540,392.440979,540,365.6695557,540,185.8526611,540,199.6549835,540,227.2775574,540,234.6876984,540,237.0578003,540,243.8410645,540,276.1619568,540,319.2512512,540,328.3902893,540,374.257843,540,367.0538635,540,342.8088379,540,280.95401,540,297.1358643,540,316.4920654,540,346.8325806,540,392.9920044,540,401.6492615
541.039978,7.719753265,541.039978,385.1003418,541.039978,356.1124573,541.039978,182.7831573,541.039978,204.2203369,541.039978,220.7397766,541.039978,223.7612305,541.039978,236.7159424,541.039978,247.7988434,541.039978,268.4900513,541.039978,302.7668457,541.039978,308.6918335,541.039978,357.3768005,541.039978,372.0614014,541.039978,324.2045898,541.039978,276.539032,541.039978,297.121521,541.039978,313.453125,541.039978,345.9207153,541.039978,380.4855042,541.039978,398.6106567
541.9400024,7.678276062,541.9400024,381.4802551,541.9400024,350.1106873,541.9400024,176.2982483,541.9400024,202.3540955,541.9400024,215.9706879,541.9400024,218.7290802,541.9400024,242.6372833,541.9400024,245.4003754,541.9400024,276.0470886,541.9400024,292.4922485,541.9400024,326.2835999,541.9400024,353.3911133,541.9400024,355.5956726,541.9400024,330.3597717,541.9400024,278.0327759,541.9400024,283.228241,541.9400024,305.7976379,541.9400024,337.8490601,541.9400024,375.0094604,541.9400024,385.8579712
542.9799805,7.775894642,542.9799805,377.5838013,542.9799805,343.8442688,542.9799805,179.6100006,542.9799805,203.8285065,542.9799805,209.8721924,542.9799805,223.0569,542.9799805,224.3380432,542.9799805,247.4915619,542.9799805,267.9910583,542.9799805,290.6358337,542.9799805,304.2090454,542.9799805,353.7947693,542.9799805,353.488678,542.9799805,326.9108887,542.9799805,266.0292664,542.9799805,281.6542053,542.9799805,305.1653137,542.9799805,333.7534485,542.9799805,377.3308411,542.9799805,380.346405
544.0200195,7.457630634,544.0200195,369.1608887,544.0200195,341.3943481,544.0200195,176.969696,544.0200195,202.2835388,544.0200195,211.8308258,544.0200195,214.482666,544.0200195,238.3976135,544.0200195,231.7271271,544.0200195,265.2332458,544.0200195,281.0444641,544.0200195,312.9025269,544.0200195,346.143219,544.0200195,346.8212891,544.0200195,310.0489807,544.0200195,267.3908997,544.0200195,282.661377,544.0200195,301.6468506,544.0200195,328.1381226,544.0200195,361.1956787,544.0200195,386.3994446
545.0700073,7.226894855,545.0700073,363.110199,545.0700073,328.7395325,545.0700073,180.5697937,545.0700073,189.0006866,545.0700073,212.203064,545.0700073,221.139801,545.0700073,227.583252,545.0700073,233.5679474,545.0700073,262.2992859,545.0700073,285.4886475,545.0700073,297.9384766,545.0700073,333.3632813,545.0700073,331.0090332,545.0700073,305.9146118,545.0700073,256.3648376,545.0700073,269.7143555,545.0700073,294.8701172,545.0700073,323.4455872,545.0700073,357.6114807,545.0700073,374.184906
545.9699707,7.258725643,545.9699707,359.0345459,545.9699707,322.9023132,545.9699707,175.7895966,545.9699707,195.0625458,545.9699707,204.3257294,545.9699707,209.7807922,545.9699707,216.7753296,545.9699707,235.6316681,545.9699707,259.6737061,545.9699707,287.6754456,545.9699707,292.6023254,545.9699707,332.2510681,545.9699707,331.5823669,545.9699707,298.6951599,545.9699707,251.8962555,545.9699707,270.4585266,545.9699707,290.3152161,545.9699707,322.84375,545.9699707,354.6639709,545.9699707,362.8003845
547.0100098,7.028909206,547.0100098,353.9595947,547.0100098,319.9764404,547.0100098,171.9297485,547.0100098,184.4978333,547.0100098,208.6053619,547.0100098,205.1697388,547.0100098,223.991684,547.0100098,227.410202,547.0100098,256.881073,547.0100098,257.6077881,547.0100098,293.4697876,547.0100098,322.3534241,547.0100098,320.8510437,547.0100098,283.6191101,547.0100098,249.0086517,547.0100098,256.5183411,547.0100098,285.2344055,547.0100098,308.5562439,547.0100098,346.3587036,547.0100098,358.1842957
548.0499878,7.191670418,548.0499878,345.7423401,548.0499878,313.228241,548.0499878,167.8486786,548.0499878,191.9347382,548.0499878,212.5120544,548.0499878,204.8198853,548.0499878,217.2328186,548.0499878,233.8505249,548.0499878,244.0854645,548.0499878,272.401825,548.0499878,284.8092346,548.0499878,314.8644409,548.0499878,318.7810364,548.0499878,279.7544556,548.0499878,254.8567657,548.0499878,259.4311829,548.0499878,276.7904968,548.0499878,310.5492554,548.0499878,338.9078064,548.0499878,353.2449646
548.9500122,6.738262653,548.9500122,342.2376099,548.9500122,309.4303894,548.9500122,164.5190582,548.9500122,188.2361603,548.9500122,209.8465881,548.9500122,201.9328918,548.9500122,208.1597137,548.9500122,215.555954,548.9500122,258.3444214,548.9500122,262.8494263,548.9500122,285.0198364,548.9500122,300.4046936,548.9500122,310.6916199,548.9500122,273.1358948,548.9500122,239.4454193,548.9500122,247.3058777,548.9500122,277.4865112,548.9500122,306.0868835,548.9500122,334.3063965,548.9500122,347.4329834
550,6.818249226,550,337.0921936,550,300.7122803,550,162.7987976,550,186.7685394,550,202.7035217,550,212.6111298,550,206.8118896,550,216.741745,550,237.2104492,550,267.0828247,550,273.3370056,550,303.7748718,550,299.9544678,550,267.0550537,550,238.6979828,550,248.9239044,550,271.8025513,550,303.9434814,550,328.644165,550,338.8431702
551.0200195,6.610753059,551.0200195,327.5065613,551.0200195,295.7068481,551.0200195,161.8708649,551.0200195,184.7365112,551.0200195,199.5618439,551.0200195,199.6401978,551.0200195,200.699295,551.0200195,206.9756775,551.0200195,236.5364227,551.0200195,245.2812805,551.0200195,276.2314758,551.0200195,294.5588074,551.0200195,298.4098206,551.0200195,254.8459167,551.0200195,239.0293121,551.0200195,247.1871033,551.0200195,264.0140686,551.0200195,288.7366333,551.0200195,319.8499451,551.0200195,333.3908997
552.0499878,6.378473282,552.0499878,324.1780701,552.0499878,287.2108765,552.0499878,162.928894,552.0499878,186.7621613,552.0499878,203.9337311,552.0499878,202.1693573,552.0499878,209.4162445,552.0499878,205.618988,552.0499878,228.1559906,552.0499878,243.793869,552.0499878,265.7009583,552.0499878,293.0664063,552.0499878,293.1220703,552.0499878,248.1223602,552.0499878,234.3170776,552.0499878,233.7461853,552.0499878,266.399292,552.0499878,291.6055908,552.0499878,317.5527649,552.0499878,327.1282349
552.9400024,6.273398876,552.9400024,319.4346008,552.9400024,282.6168823,552.9400024,158.6520233,552.9400024,182.6011963,552.9400024,203.6265259,552.9400024,201.0562592,552.9400024,196.1797638,552.9400024,197.1342621,552.9400024,232.8426056,552.9400024,256.5360107,552.9400024,242.4592133,552.9400024,289.4668274,552.9400024,286.1377258,552.9400024,250.1840057,552.9400024,222.6145477,552.9400024,236.7333679,552.9400024,260.9758301,552.9400024,287.1149597,552.9400024,313.2380371,552.9400024,324.5361938
553.9699707,6.319383144,553.9699707,308.7171936,553.9699707,278.3208008,553.9699707,158.5692291,553.9699707,175.6410522,553.9699707,194.6337433,553.9699707,193.7098541,553.9699707,199.0721741,553.9699707,190.4413147,553.9699707,215.4903107,553.9699707,238.5869293,553.9699707,247.4311066,553.9699707,280.9284363,553.9699707,282.894043,553.9699707,240.4360809,553.9699707,220.6802216,553.9699707,231.7831573,553.9699707,250.0365448,553.9699707,281.3587341,553.9699707,308.0853271,553.9699707,314.3225098
555,6.082329273,555,303.1939697,555,270.9836121,555,158.4851532,555,180.6725464,555,204.8353882,555,186.8158264,555,193.8101959,555,197.0267639,555,217.4049072,555,243.4607849,555,246.7470703,555,268.585083,555,280.7846375,555,237.3480377,555,219.1179199,555,224.8820648,555,245.8570862,555,269.3346558,555,302.4814453,555,300.8314514
556.0200195,5.953824043,556.0200195,300.3390808,556.0200195,268.7946472,556.0200195,153.012207,556.0200195,173.2086945,556.0200195,196.394165,556.0200195,187.5327911,556.0200195,191.9081726,556.0200195,188.4486847,556.0200195,203.6781616,556.0200195,236.9188843,556.0200195,237.5466003,556.0200195,270.8687134,556.0200195,268.3249207,556.0200195,236.1647949,556.0200195,216.6532288,556.0200195,214.5050964,556.0200195,237.7055206,556.0200195,267.365448,556.0200195,298.2796326,556.0200195,303.7163696
557.0499878,5.788988113,557.0499878,293.8401184,557.0499878,258.6287537,557.0499878,151.0935669,557.0499878,173.717453,557.0499878,189.3135071,557.0499878,180.1414185,557.0499878,189.6663666,557.0499878,191.9956207,557.0499878,212.2603149,557.0499878,220.4821167,557.0499878,236.4160156,557.0499878,270.8616943,557.0499878,262.0413513,557.0499878,227.9971466,557.0499878,208.0391388,557.0499878,218.8080444,557.0499878,235.1734161,557.0499878,263.6109009,557.0499878,291.6821899,557.0499878,295.4252319
557.9400024,5.654350281,557.9400024,288.4594421,557.9400024,255.1247406,557.9400024,151.7532959,557.9400024,181.4627991,557.9400024,195.8899231,557.9400024,189.2977142,557.9400024,186.7960358,557.9400024,197.4255676,557.9400024,211.2808228,557.9400024,211.6506042,557.9400024,232.5306244,557.9400024,257.0328369,557.9400024,258.5440979,557.9400024,221.1381989,557.9400024,200.5119019,557.9400024,209.660965,557.9400024,233.1392059,557.9400024,260.420929,557.9400024,288.5697937,557.9400024,289.8926697
558.9699707,5.675739765,558.9699707,283.1400757,558.9699707,250.869278,558.9699707,151.7211456,558.9699707,175.9688568,558.9699707,193.1008759,558.9699707,181.2214508,558.9699707,184.1899872,558.9699707,186.3630371,558.9699707,202.9305267,558.9699707,213.8890228,558.9699707,228.2132721,558.9699707,250.8139648,558.9699707,250.4683685,558.9699707,215.9371643,558.9699707,195.2684326,558.9699707,209.0271301,558.9699707,232.412796,558.9699707,257.2492065,558.9699707,274.8082886,558.9699707,285.119812
560,5.483076096,560,274.0083618,560,249.1805573,560,156.5470886,560,180.2310028,560,195.7488403,560,180.6571503,560,178.4133301,560,184.384903,560,194.1319885,560,205.2716522,560,220.5308228,560,248.8001862,560,244.8071899,560,208.1091766,560,188.8162842,560,200.4974518,560,223.4338684,560,249.3887024,560,268.5858154,560,284.6709595
561.039978,5.409497738,561.039978,269.25,561.039978,242.2565002,561.039978,156.0316162,561.039978,174.6454926,561.039978,205.9293213,561.039978,191.3170929,561.039978,174.7574615,561.039978,187.72789,561.039978,195.136734,561.039978,208.3339539,561.039978,218.5175934,561.039978,246.6118317,561.039978,243.0428619,561.039978,206.0074158,561.039978,186.7433624,561.039978,197.279007,561.039978,217.6128845,561.039978,241.8677521,561.039978,269.4130554,561.039978,276.5444946
561.9400024,5.232507229,561.9400024,267.1178589,561.9400024,240.9691925,561.9400024,156.6671906,561.9400024,169.1276398,561.9400024,197.7440948,561.9400024,186.2533722,561.9400024,176.3986511,561.9400024,176.6107025,561.9400024,190.7718353,561.9400024,197.4755707,561.9400024,203.7189331,561.9400024,233.0984802,561.9400024,240.8417816,561.9400024,201.3014526,561.9400024,181.9977264,561.9400024,197.287384,561.9400024,213.4186554,561.9400024,236.4962616,561.9400024,260.7937012,561.9400024,261.8347778
562.9799805,5.109130859,562.9799805,259.2479553,562.9799805,234.1662903,562.9799805,158.128418,562.9799805,176.9838104,562.9799805,195.3132324,562.9799805,181.9886475,562.9799805,171.2219543,562.9799805,169.3679352,562.9799805,179.1781464,562.9799805,204.0807037,562.9799805,204.6255493,562.9799805,237.5130615,562.9799805,233.4522095,562.9799805,198.5796814,562.9799805,182.5631409,562.9799805,196.4059296,562.9799805,207.9525909,562.9799805,232.7771606,562.9799805,255.4774323,562.9799805,263.4568481
564.0200195,4.971758366,564.0200195,253.0563812,564.0200195,229.9019318,564.0200195,171.8301697,564.0200195,178.8691559,564.0200195,196.2615356,564.0200195,182.3493652,564.0200195,165.5412445,564.0200195,168.8479919,564.0200195,180.5583801,564.0200195,191.6478119,564.0200195,200.2267761,564.0200195,227.5775146,564.0200195,232.1005707,564.0200195,190.688446,564.0200195,171.8351898,564.0200195,187.5422058,564.0200195,206.2288208,564.0200195,223.2599792,564.0200195,248.430191,564.0200195,254.1194305
565.0700073,5.112086773,565.0700073,248.7557373,565.0700073,222.9163513,565.0700073,195.4035034,565.0700073,176.8199921,565.0700073,195.7222595,565.0700073,179.8016205,565.0700073,165.7494049,565.0700073,158.1307373,565.0700073,171.9437866,565.0700073,186.7632751,565.0700073,191.5490417,565.0700073,225.2476044,565.0700073,219.7192535,565.0700073,191.831131,565.0700073,167.9068298,565.0700073,185.1849213,565.0700073,199.0254364,565.0700073,220.4685974,565.0700073,248.5548553,565.0700073,245.5568542
565.9699707,5.10902977,565.9699707,243.4382019,565.9699707,218.6235657,565.9699707,242.8656158,565.9699707,176.3695374,565.9699707,193.0444641,565.9699707,170.7945557,565.9699707,160.3083954,565.9699707,161.8759766,565.9699707,175.7472382,565.9699707,192.0416565,565.9699707,197.1429596,565.9699707,218.8164368,565.9699707,218.2478638,565.9699707,182.6830902,565.9699707,166.7082367,565.9699707,188.3702087,565.9699707,198.5227966,565.9699707,220.5253143,565.9699707,241.2956848,565.9699707,245.4698639
567.0100098,4.910389423,567.0100098,238.833847,567.0100098,213.0905762,567.0100098,306.539032,567.0100098,186.3568878,567.0100098,195.387207,567.0100098,174.1419373,567.0100098,150.2463989,567.0100098,163.9069977,567.0100098,176.7925262,567.0100098,182.1298218,567.0100098,192.7793427,567.0100098,219.7259979,567.0100098,214.5145721,567.0100098,181.6957245,567.0100098,165.2447815,567.0100098,180.7250519,567.0100098,192.8960419,567.0100098,209.6170502,567.0100098,232.5647888,567.0100098,242.4867096
568.0499878,4.842431068,568.0499878,234.8287811,568.0499878,207.6127014,568.0499878,458.0321655,568.0499878,178.9748383,568.0499878,199.3321381,568.0499878,179.0863495,568.0499878,156.224472,568.0499878,167.2371979,568.0499878,172.7059937,568.0499878,177.8500824,568.0499878,183.6291504,568.0499878,214.4592285,568.0499878,212.1564484,568.0499878,178.1815338,568.0499878,162.2010345,568.0499878,176.3383484,568.0499878,191.1860046,568.0499878,207.9264374,568.0499878,229.8075104,568.0499878,233.6903534
568.9500122,4.645862103,568.9500122,227.6585846,568.9500122,204.4255066,568.9500122,658.744812,568.9500122,184.1825867,568.9500122,197.0014648,568.9500122,174.1045074,568.9500122,152.9888916,568.9500122,157.2221375,568.9500122,164.5578766,568.9500122,176.7076416,568.9500122,180.493576,568.9500122,212.4781189,568.9500122,209.3346252,568.9500122,172.6212311,568.9500122,155.1362762,568.9500122,180.1388702,568.9500122,182.6959229,568.9500122,205.4608154,568.9500122,225.0305786,568.9500122,227.0755157
570,4.253089428,570,219.3797455,570,201.204483,570,926.6556396,570,183.6670837,570,198.5807648,570,175.7319946,570,153.1842957,570,152.9166565,570,169.4690247,570,172.7086487,570,177.7498322,570,198.1499329,570,203.1591797,570,162.3068542,570,151.6930237,570,171.0473938,570,182.6186371,570,197.6116791,570,218.9446259,570,227.0600739
571.0200195,4.437200546,571.0200195,218.4302216,571.0200195,195.1585083,571.0200195,1000,571.0200195,194.5598907,571.0200195,197.2932281,571.0200195,168.1932831,571.0200195,152.6438141,571.0200195,149.6595764,571.0200195,162.498642,571.0200195,169.814621,571.0200195,180.852951,571.0200195,202.2560425,571.0200195,198.0287933,571.0200195,164.8971252,571.0200195,149.2759857,571.0200195,169.2412872,571.0200195,177.92453,571.0200195,189.1515656,571.0200195,218.1600037,571.0200195,222.7838287
572.0499878,4.219475269,572.0499878,212.1472473,572.0499878,190.5546265,572.0499878,1000,572.0499878,186.6571045,572.0499878,202.0071716,572.0499878,165.7836914,572.0499878,148.8579407,572.0499878,154.2808533,572.0499878,160.8175964,572.0499878,160.8214264,572.0499878,167.7931366,572.0499878,187.096405,572.0499878,192.0130005,572.0499878,162.5287018,572.0499878,146.5407104,572.0499878,159.012558,572.0499878,170.4248352,572.0499878,186.141571,572.0499878,212.0199738,572.0499878,214.5869904
572.9400024,4.169878483,572.9400024,207.9081116,572.9400024,188.7721558,572.9400024,1000,572.9400024,200.3918457,572.9400024,215.1528778,572.9400024,167.5846558,572.9400024,145.1280975,572.9400024,148.6929474,572.9400024,159.3569946,572.9400024,156.1408997,572.9400024,173.5048981,572.9400024,196.6177979,572.9400024,189.7476349,572.9400024,161.4663849,572.9400024,144.3183899,572.9400024,157.1223145,572.9400024,170.1464233,572.9400024,186.9759064,572.9400024,205.565567,572.9400024,209.3433533
573.9699707,3.969788551,573.9699707,204.7219849,573.9699707,183.2178345,573.9699707,1000,573.9699707,214,573.9699707,218.4892578,573.9699707,169.3262177,573.9699707,147.4526215,573.9699707,152.652832,573.9699707,151.5606995,573.9699707,156.7200928,573.9699707,163.9992981,573.9699707,183.1943054,573.9699707,177.3439178,573.9699707,151.6539612,573.9699707,136.9491425,573.9699707,150.9918976,573.9699707,164.4921417,573.9699707,173.0146942,573.9699707,199.240387,573.9699707,206.0694427
575,4.12805748,575,198.1924133,575,179.0720367,575,1000,575,254.0460815,575,203.4376526,575,168.3320923,575,145.1057739,575,146.8191986,575,147.8199768,575,145.0957947,575,158.9369202,575,173.8088684,575,178.8899078,575,146.6048889,575,135.2713928,575,144.4207153,575,159.876358,575,177.3385925,575,197.1534119,575,203.7951202
576.0200195,3.851299763,576.0200195,195.2836456,576.0200195,174.7834473,576.0200195,1000,576.0200195,317.171814,576.0200195,216.0610199,576.0200195,172.3968811,576.0200195,145.4315948,576.0200195,134.9785156,576.0200195,155.1771393,576.0200195,148.1429596,576.0200195,154.5068817,576.0200195,171.4870148,576.0200195,175.8049469,576.0200195,145.2550507,576.0200195,133.9642029,576.0200195,138.4684143,576.0200195,154.8424377,576.0200195,173.3617859,576.0200195,193.2202606,576.0200195,194.5423431
577.0499878,3.796035767,577.0499878,189.4117737,577.0499878,168.4234772,577.0499878,1000,577.0499878,409.2655029,577.0499878,217.4545441,577.0499878,169.9943848,577.0499878,138.9182129,577.0499878,148.5997467,577.0499878,148.9762726,577.0499878,145.6139221,577.0499878,151.3510742,577.0499878,167.5079498,577.0499878,167.7844849,577.0499878,146.5624542,577.0499878,130.032547,577.0499878,135.6017761,577.0499878,151.4721375,577.0499878,163.7923279,577.0499878,186.0844879,577.0499878,187.1742554
577.9400024,3.743906736,577.9400024,186.058548,577.9400024,168.0191193,577.9400024,1000,577.9400024,538.4552612,577.9400024,217.8193512,577.9400024,175.7826996,577.9400024,136.8398743,577.9400024,133.6694031,577.9400024,139.2471008,577.9400024,148.5369873,577.9400024,150.9518585,577.9400024,168.9733887,577.9400024,164.6785278,577.9400024,135.6273193,577.9400024,123.6991653,577.9400024,134.4875946,577.9400024,150.7163391,577.9400024,162.0146027,577.9400024,181.5984497,577.9400024,190.2136688
578.9699707,3.578277349,578.9699707,180.3831024,578.9699707,162.7122345,578.9699707,1000,578.9699707,773.5194702,578.9699707,223.747345,578.9699707,177.243454,578.9699707,141.0744476,578.9699707,134.848526,578.9699707,137.9361115,578.9699707,139.0921936,578.9699707,146.5940857,578.9699707,161.9840393,578.9699707,157.5703583,578.9699707,136.6585083,578.9699707,122.2534561,578.9699707,130.3225555,578.9699707,146.9135132,578.9699707,160.9373322,578.9699707,175.868454,578.9699707,183.9180603
580,3.566823721,580,175.5501251,580,158.7961426,580,1000,580,1000,580,237.4264374,580,179.4148865,580,141.7373505,580,136.322403,580,139.1631927,580,141.4605713,580,143.4652557,580,155.5362549,580,161.8019714,580,136.6658783,580,119.6391373,580,125.4882813,580,142.1731567,580,152.3085022,580,173.4472961,580,175.3654327
581.0200195,3.398584843,581.0200195,170.6174164,581.0200195,153.2032166,581.0200195,1000,581.0200195,1000,581.0200195,243.76091,581.0200195,170.5919189,581.0200195,139.9560547,581.0200195,135.3409729,581.0200195,138.7475128,581.0200195,144.2263031,581.0200195,138.9203949,581.0200195,160.8989258,581.0200195,153.6629333,581.0200195,129.659256,581.0200195,115.9187927,581.0200195,127.4719543,581.0200195,142.3769836,581.0200195,150.9284515,581.0200195,169.6424561,581.0200195,174.1590118
582.0499878,3.459825993,582.0499878,168.1680298,582.0499878,151.99263,582.0499878,1000,582.0499878,1000,582.0499878,241.3317719,582.0499878,178.6765289,582.0499878,132.8886566,582.0499878,134.1056671,582.0499878,131.2075958,582.0499878,128.5690155,582.0499878,135.8544006,582.0499878,150.7427826,582.0499878,155.4334717,582.0499878,121.0077209,582.0499878,109.9295654,582.0499878,123.7706146,582.0499878,138.017868,582.0499878,145.6808014,582.0499878,160.3708954,582.0499878,172.6000977
582.9400024,3.209413052,582.9400024,163.1593323,582.9400024,147.6576233,582.9400024,1000,582.9400024,1000,582.9400024,248.0725098,582.9400024,170.8392944,582.9400024,141.687027,582.9400024,136.1495209,582.9400024,133.3121338,582.9400024,127.396492,582.9400024,134.5423584,582.9400024,142.9092865,582.9400024,151.9281311,582.9400024,121.5855408,582.9400024,110.3619308,582.9400024,120.3499756,582.9400024,137.370285,582.9400024,146.6217651,582.9400024,160.8209534,582.9400024,168.0517273
583.9699707,3.04258132,583.9699707,159.1555786,583.9699707,144.9701996,583.9699707,1000,583.9699707,1000,583.9699707,261.538208,583.9699707,170.5467682,583.9699707,135.5484009,583.9699707,123.0425568,583.9699707,128.2281647,583.9699707,128.4453735,583.9699707,130.625,583.9699707,146.3565063,583.9699707,146.9902802,583.9699707,120.8810272,583.9699707,107.4070969,583.9699707,116.2657318,583.9699707,130.8261414,583.9699707,142.6514435,583.9699707,155.2076263,583.9699707,158.1466675
585,3.076452732,585,154.2404175,585,141.3862457,585,1000,585,1000,585,254.404068,585,172.6828003,585,142.6629181,585,125.7846832,585,124.4567032,585,125.4559479,585,128.2481232,585,142.5358429,585,140.272171,585,119.442009,585,106.6442337,585,114.7086945,585,126.0814972,585,135.5636139,585,151.8058929,585,156.8830872
586.0200195,3.015313625,586.0200195,152.6474762,586.0200195,138.6354523,586.0200195,1000,586.0200195,1000,586.0200195,278.8410034,586.0200195,184.7549591,586.0200195,136.9275055,586.0200195,124.6691666,586.0200195,128.9349976,586.0200195,122.6765823,586.0200195,123.3164444,586.0200195,139.5614471,586.0200195,140.6682281,586.0200195,117.2973709,586.0200195,104.0484314,586.0200195,108.3827057,586.0200195,124.7975998,586.0200195,136.9211731,586.0200195,153.0139008,586.0200195,153.7143097
587.0499878,3.026277781,587.0499878,148.2614136,587.0499878,140.0561371,587.0499878,1000,587.0499878,1000,587.0499878,292.2519226,587.0499878,188.3710938,587.0499878,142.5050201,587.0499878,133.4035187,587.0499878,122.4614258,587.0499878,121.5675278,587.0499878,124.2001038,587.0499878,135.882309,587.0499878,136.8618622,587.0499878,112.2720184,587.0499878,102.7011719,587.0499878,112.5604553,587.0499878,122.7826004,587.0499878,133.2225037,587.0499878,142.8133698,587.0499878,145.9907532
587.9400024,2.87691021,587.9400024,144.3668976,587.9400024,138.5708923,587.9400024,1000,587.9400024,1000,587.9400024,314.593689,587.9400024,186.0534821,587.9400024,139.7986298,587.9400024,127.404335,587.9400024,123.4637756,587.9400024,120.2424469,587.9400024,121.1192474,587.9400024,138.9179688,587.9400024,129.1215515,587.9400024,107.907486,587.9400024,97.98640442,587.9400024,109.2182999,587.9400024,117.6213837,587.9400024,127.7074509,587.9400024,143.5908203,587.9400024,147.2103424
588.9699707,2.830384016,588.9699707,140.8213348,588.9699707,137.077301,588.9699707,1000,588.9699707,1000,588.9699707,333.7451172,588.9699707,194.4898834,588.9699707,144.2284088,588.9699707,128.5825806,588.9699707,126.3078461,588.9699707,119.3229218,588.9699707,118.0132217,588.9699707,130.8384705,588.9699707,134.1504364,588.9699707,108.7100677,588.9699707,99.58866882,588.9699707,103.5946655,588.9699707,114.2990112,588.9699707,126.4287643,588.9699707,137.8127899,588.9699707,143.7329865
590,2.853565216,590,136.9447784,590,134.0862732,590,1000,590,1000,590,358.4389343,590,202.6842651,590,140.282196,590,135.8854675,590,127.8444366,590,120.2269363,590,119.2613525,590,122.9074936,590,129.3127899,590,107.9637604,590,95.67891693,590,100.833107,590,111.2787628,590,123.2546387,590,133.3214417,590,139.1340179
591.0200195,2.619999409,591.0200195,132.8096466,591.0200195,134.0011902,591.0200195,1000,591.0200195,1000,591.0200195,411.0227051,591.0200195,202.4388885,591.0200195,142.8755951,591.0200195,126.5013504,591.0200195,124.1991577,591.0200195,122.6653061,591.0200195,119.3698654,591.0200195,129.1409302,591.0200195,124.9902802,591.0200195,102.0782166,591.0200195,91.66755676,591.0200195,103.3005524,591.0200195,107.8168716,591.0200195,117.6053238,591.0200195,132.3380585,591.0200195,134.9289398
592.0499878,2.529839039,592.0499878,129.7827911,592.0499878,131.6526794,592.0499878,1000,592.0499878,1000,592.0499878,436.0828247,592.0499878,208.2241516,592.0499878,143.5900269,592.0499878,133.6920471,592.0499878,128.0445251,592.0499878,122.0273666,592.0499878,118.5379028,592.0499878,122.3178635,592.0499878,122.8987503,592.0499878,98.35758972,592.0499878,93.80380249,592.0499878,99.83030701,592.0499878,106.8331451,592.0499878,117.5874252,592.0499878,131.8931122,592.0499878,129.6893463
592.9400024,2.61862874,592.9400024,125.9960556,592.9400024,131.4953613,592.9400024,1000,592.9400024,1000,592.9400024,500.1929321,592.9400024,216.9377441,592.9400024,163.6094513,592.9400024,133.2410736,592.9400024,123.8482285,592.9400024,119.8274689,592.9400024,119.9600906,592.9400024,117.3338928,592.9400024,125.7430191,592.9400024,100.8562851,592.9400024,85.17338562,592.9400024,94.08600616,592.9400024,105.4626312,592.9400024,116.135788,592.9400024,127.0350342,592.9400024,128.4506836
593.9699707,2.567627668,593.9699707,124.9063797,593.9699707,127.6728973,593.9699707,1000,593.9699707,1000,593.9699707,614.0814209,593.9699707,229.8062439,593.9699707,157.8385925,593.9699707,144.5185699,593.9699707,127.6088791,593.9699707,115.1685791,593.9699707,115.7517395,593.9699707,112.0600739,593.9699707,115.9261017,593.9699707,95.90625763,593.9699707,88.84506226,593.9699707,92.91949463,593.9699707,101.1512299,593.9699707,112.0638962,593.9699707,120.9010773,593.9699707,126.7866516
595,2.539472103,595,120.7678223,595,125.1893005,595,1000,595,1000,595,847.8151245,595,247.0787811,595,160.5664673,595,133.5608063,595,128.7387238,595,114.4092636,595,113.7998734,595,112.7966232,595,118.5928421,595,93.97705841,595,87.46396637,595,91.25518799,595,98.96227264,595,112.1219482,595,119.2734375,595,124.0427094
596.0200195,2.434235573,596.0200195,117.5985565,596.0200195,123.0433044,596.0200195,1000,596.0200195,1000,596.0200195,1000,596.0200195,247.9795532,596.0200195,174.4511719,596.0200195,134.6417694,596.0200195,128.1914978,596.0200195,124.4737091,596.0200195,111.2958374,596.0200195,112.6590271,596.0200195,118.2719879,596.0200195,92.58717346,596.0200195,80.573349,596.0200195,86.59570313,596.0200195,95.64328766,596.0200195,108.6407623,596.0200195,120.4544754,596.0200195,119.0096893
597.0499878,2.239936113,597.0499878,115.9957733,597.0499878,118.551651,597.0499878,1000,597.0499878,1000,597.0499878,1000,597.0499878,259.5550232,597.0499878,172.5568695,597.0499878,137.8809204,597.0499878,127.7419739,597.0499878,113.7746735,597.0499878,107.8156509,597.0499878,105.2524338,597.0499878,117.7694244,597.0499878,90.2334137,597.0499878,75.75881958,597.0499878,88.25793457,597.0499878,94.19015503,597.0499878,104.7754288,597.0499878,115.965538,597.0499878,113.5185471
597.9400024,2.216118336,597.9400024,113.593071,597.9400024,115.3181992,597.9400024,1000,597.9400024,1000,597.9400024,1000,597.9400024,272.5043945,597.9400024,173.9473267,597.9400024,144.6816864,597.9400024,131.6296234,597.9400024,114.7478256,597.9400024,111.703537,597.9400024,106.6269531,597.9400024,117.076828,597.9400024,90.5213089,597.9400024,79.7015686,597.9400024,80.52893829,597.9400024,93.3289566,597.9400024,104.3544769,597.9400024,114.9228745,597.9400024,115.0601578
598.9699707,2.170573473,598.9699707,109.445343,598.9699707,111.5792618,598.9699707,1000,598.9699707,1000,598.9699707,1000,598.9699707,284.2731323,598.9699707,175.6181946,598.9699707,148.1207428,598.9699707,130.6200867,598.9699707,112.2340164,598.9699707,107.9477615,598.9699707,100.3045425,598.9699707,117.6629181,598.9699707,85.34728241,598.9699707,73.50537872,598.9699707,80.78417969,598.9699707,89.28107452,598.9699707,99.87567902,598.9699707,107.8418808,598.9699707,110.1084747
600,2.165448427,600,108.3982468,600,106.6757431,600,1000,600,1000,600,1000,600,291.6279907,600,181.4319763,600,151.9463959,600,124.4907761,600,114.331192,600,108.8759689,600,104.5065918,600,116.0968246,600,83.79128265,600,77.57308197,600,79.60240173,600,87.99025726,600,100.8328094,600,105.8375092,600,106.5261154
,,,,,,,,,,,,,,,,,,,,,,,,,,,,,,,,,,,,,,,,,
,,,,,,,,,,,,,,,,,,,,,,,,,,,,,,,,,,,,,,,,,
