3997.63597	-0.0065932795
3995.70754	-0.0065905768
3993.77911	-0.0065925657
3991.85068	-0.0065963902
3989.92225	-0.0065969508
3987.99382	-0.0065985317
3986.06539	-0.0066017951
3984.13696	-0.0066006733
3982.20853	-0.0065961350
3980.28010	-0.0065933308
3978.35167	-0.0065940954
3976.42324	-0.0065966449
3974.49481	-0.0065983278
3972.56638	-0.0065987357
3970.63795	-0.0065992456
3968.70952	-0.0066006733
3966.78109	-0.0066025089
3964.85266	-0.0066027641
3962.92423	-0.0066002654
3960.99580	-0.0065968488
3959.06737	-0.0065937894
3957.13894	-0.0065921578
3955.21051	-0.0065945545
3953.28207	-0.0065986337
3951.35364	-0.0066011832
3949.42521	-0.0066043958
3947.49678	-0.0066077099
3945.56835	-0.0066070980
3943.63992	-0.0066015911
3941.71149	-0.0065993476
3939.78306	-0.0065995515
3937.85463	-0.0066012852
3935.92620	-0.0066067413
3933.99777	-0.0066080159
3932.06934	-0.0066061295
3930.14091	-0.0066082198
3928.21248	-0.0066120951
3926.28405	-0.0066165822
3924.35562	-0.0066237208
3922.42719	-0.0066287685
3920.49876	-0.0066240267
3918.57033	-0.0066168881
3916.64190	-0.0066150525
3914.71347	-0.0066189789
3912.78504	-0.0066182651
3910.85661	-0.0066159703
3908.92818	-0.0066167861
3906.99975	-0.0066201002
3905.07132	-0.0066205594
3903.14289	-0.0066221398
3901.21446	-0.0066249953
3899.28603	-0.0066273916
3897.35760	-0.0066329492
3895.42917	-0.0066341222
3893.50074	-0.0066300943
3891.57231	-0.0066237208
3889.64388	-0.0066311141
3887.71545	-0.0066350400
3885.78701	-0.0066335103
3883.85858	-0.0066477354
3881.93015	-0.0066488571
3880.00172	-0.0066448804
3878.07329	-0.0066523752
3876.14486	-0.0066529871
3874.21643	-0.0066531398
3872.28800	-0.0066569126
3870.35957	-0.0066499277
3868.43114	-0.0066625210
3866.50271	-0.0066661406
3864.57428	-0.0066564027
3862.64585	-0.0066569638
3860.71742	-0.0066604307
3858.78899	-0.0066695055
3856.86056	-0.0066729216
3854.93213	-0.0066498769
3853.00370	-0.0066482453
3851.07527	-0.0066776117
3849.14684	-0.0066897967
3847.21841	-0.0066881143
3845.28998	-0.0066840355
3843.36155	-0.0066817417
3841.43312	-0.0066838828
3839.50469	-0.0066775098
3837.57626	-0.0066758278
3835.64783	-0.0066939257
3833.71940	-0.0066961688
3831.79097	-0.0066887769
3829.86254	-0.0066914279
3827.93411	-0.0066939769
3826.00568	-0.0066979532
3824.07725	-0.0067041726
3822.14882	-0.0066962708
3820.22039	-0.0067031533
3818.29196	-0.0067100865
3816.36352	-0.0066940789
3814.43509	-0.0067076902
3812.50666	-0.0067232386
3810.57823	-0.0067302734
3808.64980	-0.0067268577
3806.72137	-0.0067199757
3804.79294	-0.0067347591
3802.86451	-0.0067259911
3800.93608	-0.0067176311
3799.00765	-0.0067326692
3797.07922	-0.0067334338
3795.15079	-0.0067416914
3793.22236	-0.0067532118
3791.29393	-0.0067553525
3789.36550	-0.0067495927
3787.43707	-0.0067434758
3785.50864	-0.0067469929
3783.58021	-0.0067593795
3781.65178	-0.0067676366
3779.72335	-0.0067691659
3777.79492	-0.0067752823
3775.86649	-0.0067779329
3773.93806	-0.0067784935
3772.00963	-0.0067819087
3770.08120	-0.0067847627
3768.15277	-0.0067906752
3766.22434	-0.0067886366
3764.29591	-0.0067915418
3762.36748	-0.0067965877
3760.43905	-0.0067944978
3758.51062	-0.0067978110
3756.58219	-0.0068090237
3754.65376	-0.0068199304
3752.72533	-0.0068129483
3750.79690	-0.0068125911
3748.86847	-0.0068294099
3746.94003	-0.0068480624
3745.01160	-0.0068260459
3743.08317	-0.0068408768
3741.15474	-0.0068638604
3739.22631	-0.0068700775
3737.29788	-0.0068664593
3735.36945	-0.0068670199
3733.44102	-0.0068693128
3731.51259	-0.0068669687
3729.58416	-0.0068709436
3727.65573	-0.0068660513
3725.72730	-0.0068712495
3723.79887	-0.0068833265
3721.87044	-0.0068892376
3719.94201	-0.0068975943
3718.01358	-0.0069071744
3716.08515	-0.0069160913
3714.15672	-0.0069170594
3712.22829	-0.0069144606
3710.29986	-0.0069225621
3708.37143	-0.0069268425
3706.44300	-0.0069257212
3704.51457	-0.0069207791
3702.58614	-0.0069190464
3700.65771	-0.0069300523
3698.72928	-0.0069418731
3696.80085	-0.0069459490
3694.87242	-0.0069503817
3692.94399	-0.0069521652
3691.01556	-0.0069519104
3689.08713	-0.0069476306
3687.15870	-0.0069594001
3685.23027	-0.0069662780
3683.30184	-0.0069522159
3681.37341	-0.0069441148
3679.44497	-0.0069472739
3677.51654	-0.0069463570
3675.58811	-0.0069452869
3673.65968	-0.0069754994
3671.73125	-0.0069773337
3669.80282	-0.0069686216
3667.87439	-0.0069774864
3665.94596	-0.0069770790
3664.01753	-0.0069782506
3662.08910	-0.0069869114
3660.16067	-0.0069930251
3658.23224	-0.0069831414
3656.30381	-0.0069638835
3654.37538	-0.0069643417
3652.44695	-0.0069629154
3650.51852	-0.0069516557
3648.59009	-0.0069549163
3646.66166	-0.0069688763
3644.73323	-0.0069714747
3642.80480	-0.0069598584
3640.87637	-0.0069489554
3638.94794	-0.0069427905
3637.01951	-0.0069395294
3635.09108	-0.0069425353
3633.16265	-0.0069572600
3631.23422	-0.0069618453
3629.30579	-0.0069427392
3627.37736	-0.0069392235
3625.44893	-0.0069365744
3623.52050	-0.0069302050
3621.59207	-0.0069266893
3619.66364	-0.0069192504
3617.73521	-0.0069144606
3615.80678	-0.0069086007
3613.87835	-0.0069065625
3611.94992	-0.0069157346
3610.02148	-0.0069135944
3608.09305	-0.0069013652
3606.16462	-0.0068960148
3604.23619	-0.0068918364
3602.30776	-0.0068877088
3600.37933	-0.0068836831
3598.45090	-0.0068767527
3596.52247	-0.0068627899
3594.59404	-0.0068462277
3592.66561	-0.0068370034
3590.73718	-0.0068343533
3588.80875	-0.0068305312
3586.88032	-0.0068279319
3584.95189	-0.0068232939
3583.02346	-0.0068148337
3581.09503	-0.0068050483
3579.16660	-0.0067920005
3577.23817	-0.0067787995
3575.30974	-0.0067716637
3573.38131	-0.0067693698
3571.45288	-0.0067667705
3569.52445	-0.0067588189
3567.59602	-0.0067477576
3565.66759	-0.0067400602
3563.73916	-0.0067265010
3561.81073	-0.0067071803
3559.88230	-0.0066928044
3557.95387	-0.0066861766
3556.02544	-0.0066804667
3554.09701	-0.0066702706
3552.16858	-0.0066585951
3550.24015	-0.0066507435
3548.31172	-0.0066391700
3546.38329	-0.0066220379
3544.45486	-0.0066076592
3542.52643	-0.0065988377
3540.59799	-0.0065961862
3538.66956	-0.0065952684
3536.74113	-0.0065862425
3534.81270	-0.0065718624
3532.88427	-0.0065592155
3530.95584	-0.0065451404
3529.02741	-0.0065280050
3527.09898	-0.0065126540
3525.17055	-0.0064991382
3523.24212	-0.0064848573
3521.31369	-0.0064717489
3519.38526	-0.0064588441
3517.45683	-0.0064449697
3515.52840	-0.0064369105
3513.59997	-0.0064356858
3511.67154	-0.0064262492
3509.74311	-0.0064046704
3507.81468	-0.0063856421
3505.88625	-0.0063717142
3503.95782	-0.0063569699
3502.02939	-0.0063425819
3500.10096	-0.0063325306
3498.17253	-0.0063267141
3496.24410	-0.0063161524
3494.31567	-0.0062952316
3492.38724	-0.0062701767
3490.45881	-0.0062480802
3488.53038	-0.0062307287
3486.60195	-0.0062151118
3484.67352	-0.0061946972
3482.74509	-0.0061710146
3480.81666	-0.0061542727
3478.88823	-0.0061436044
3476.95980	-0.0061301794
3475.03137	-0.0061118533
3473.10293	-0.0060919439
3471.17450	-0.0060707573
3469.24607	-0.0060472721
3467.31764	-0.0060224584
3465.38921	-0.0059981025
3463.46078	-0.0059755323
3461.53235	-0.0059559746
3459.60392	-0.0059387134
3457.67549	-0.0059236991
3455.74706	-0.0059100632
3453.81863	-0.0058935662
3451.89020	-0.0058700717
3449.96177	-0.0058405991
3448.03334	-0.0058129639
3446.10491	-0.0057929386
3444.17648	-0.0057744454
3442.24805	-0.0057507395
3440.31962	-0.0057237628
3438.39119	-0.0056997477
3436.46276	-0.0056818123
3434.53433	-0.0056638764
3432.60590	-0.0056415447
3430.67747	-0.0056159408
3428.74904	-0.0055910512
3426.82061	-0.0055716289
3424.89218	-0.0055563464
3422.96375	-0.0055392226
3421.03532	-0.0055173449
3419.10689	-0.0054904046
3417.17846	-0.0054587079
3415.25003	-0.0054264977
3413.32160	-0.0053980178
3411.39317	-0.0053772065
3409.46474	-0.0053647808
3407.53631	-0.0053542466
3405.60788	-0.0053393650
3403.67944	-0.0053225909
3401.75101	-0.0053085783
3399.82258	-0.0052948715
3397.89415	-0.0052790679
3395.96572	-0.0052633653
3394.03729	-0.0052484297
3392.10886	-0.0052330848
3390.18043	-0.0052139023
3388.25200	-0.0051907287
3386.32357	-0.0051704189
3384.39514	-0.0051537408
3382.46671	-0.0051339921
3380.53828	-0.0051111728
3378.60985	-0.0050888634
3376.68142	-0.0050670141
3374.75299	-0.0050463914
3372.82456	-0.0050280197
3370.89613	-0.0050081117
3368.96770	-0.0049813958
3367.03927	-0.0049498668
3365.11084	-0.0049226354
3363.18241	-0.0049033882
3361.25398	-0.0048846519
3359.32555	-0.0048589013
3357.39712	-0.0048263907
3355.46869	-0.0047945431
3353.54026	-0.0047671995
3351.61183	-0.0047381646
3349.68340	-0.0047039548
3347.75497	-0.0046724565
3345.82654	-0.0046509961
3343.89811	-0.0046353224
3341.96968	-0.0046148840
3340.04125	-0.0045875292
3338.11282	-0.0045655007
3336.18439	-0.0045568426
3334.25595	-0.0045538200
3332.32752	-0.0045516682
3330.39909	-0.0045595579
3328.47066	-0.0045789229
3326.54223	-0.0046027438
3324.61380	-0.0046276902
3322.68537	-0.0046490496
3320.75694	-0.0046625715
3318.82851	-0.0046732761
3316.90008	-0.0046860292
3314.97165	-0.0046987305
3313.04322	-0.0047078468
3311.11479	-0.0047160923
3309.18636	-0.0047264369
3307.25793	-0.0047337092
3305.32950	-0.0047344770
3303.40107	-0.0047333506
3301.47264	-0.0047328384
3299.54421	-0.0047322754
3297.61578	-0.0047340165
3295.68735	-0.0047342726
3293.75892	-0.0047289464
3291.83049	-0.0047289976
3289.90206	-0.0047402126
3287.97363	-0.0047519910
3286.04520	-0.0047585457
3284.11677	-0.0047627958
3282.18834	-0.0047647930
3280.25991	-0.0047659194
3278.33148	-0.0047729858
3276.40305	-0.0047869650
3274.47462	-0.0048009949
3272.54619	-0.0048153312
3270.61776	-0.0048330976
3268.68933	-0.0048513752
3266.76089	-0.0048707272
3264.83246	-0.0048931497
3262.90403	-0.0049181310
3260.97560	-0.0049454137
3259.04717	-0.0049749468
3257.11874	-0.0050068321
3255.19031	-0.0050393292
3253.26188	-0.0050673722
3251.33345	-0.0050879428
3249.40502	-0.0051068747
3247.47659	-0.0051312293
3245.54816	-0.0051583964
3243.61973	-0.0051832600
3241.69130	-0.0052074566
3239.76287	-0.0052347728
3237.83444	-0.0052613197
3235.90601	-0.0052806023
3233.97758	-0.0052951276
3232.04915	-0.0053122095
3230.12072	-0.0053349161
3228.19229	-0.0053614057
3226.26386	-0.0053850813
3224.33543	-0.0054008304
3222.40700	-0.0054144314
3220.47857	-0.0054349340
3218.55014	-0.0054601906
3216.62171	-0.0054811002
3214.69328	-0.0054983795
3212.76485	-0.0055170893
3210.83642	-0.0055350824
3208.90799	-0.0055511328
3206.97956	-0.0055661602
3205.05113	-0.0055772001
3203.12270	-0.0055856337
3201.19427	-0.0055986666
3199.26584	-0.0056188027
3197.33740	-0.0056421068
3195.40897	-0.0056644897
3193.48054	-0.0056812502
3191.55211	-0.0056909593
3189.62368	-0.0057005142
3187.69525	-0.0057152300
3185.76682	-0.0057319379
3183.83839	-0.0057459371
3181.90996	-0.0057576369
3179.98153	-0.0057703583
3178.05310	-0.0057859910
3176.12467	-0.0058017764
3174.19624	-0.0058122487
3172.26781	-0.0058199111
3170.33938	-0.0058297701
3168.41095	-0.0058417739
3166.48252	-0.0058549014
3164.55409	-0.0058674156
3162.62566	-0.0058770180
3160.69723	-0.0058836066
3158.76880	-0.0058894805
3156.84037	-0.0058971415
3154.91194	-0.0059089395
3152.98351	-0.0059280912
3151.05508	-0.0059475992
3149.12665	-0.0059567913
3147.19822	-0.0059600598
3145.26979	-0.0059654214
3143.34136	-0.0059714983
3141.41293	-0.0059781368
3139.48450	-0.0059891664
3137.55607	-0.0060021365
3135.62764	-0.0060105613
3133.69921	-0.0060143396
3131.77078	-0.0060179653
3129.84235	-0.0060247560
3127.91391	-0.0060331295
3125.98548	-0.0060392562
3124.05705	-0.0060455874
3122.12862	-0.0060557984
3120.20019	-0.0060669282
3118.27176	-0.0060758116
3116.34333	-0.0060837758
3114.41490	-0.0060922503
3112.48647	-0.0060985293
3110.55804	-0.0061003673
3108.62961	-0.0061019496
3106.70118	-0.0061080246
3104.77275	-0.0061170091
3102.84432	-0.0061263000
3100.91589	-0.0061340588
3098.98746	-0.0061387038
3097.05903	-0.0061428896
3095.13060	-0.0061509549
3093.20217	-0.0061601424
3091.27374	-0.0061661652
3089.34531	-0.0061700447
3087.41688	-0.0061737709
3085.48845	-0.0061802017
3083.56002	-0.0061903587
3081.63159	-0.0061991373
3079.70316	-0.0062033734
3077.77473	-0.0062082219
3075.84630	-0.0062208283
3073.91787	-0.0062368531
3071.98944	-0.0062456816
3070.06101	-0.0062468043
3068.13258	-0.0062479782
3066.20415	-0.0062531326
3064.27572	-0.0062584397
3062.34729	-0.0062606339
3060.41885	-0.0062626242
3058.49042	-0.0062683397
3056.56199	-0.0062781372
3054.63356	-0.0062893634
3052.70513	-0.0063004363
3050.77670	-0.0063090087
3048.84827	-0.0063131927
3046.91984	-0.0063170195
3044.99141	-0.0063234488
3043.06298	-0.0063286019
3041.13455	-0.0063333982
3039.20612	-0.0063415617
3037.27769	-0.0063508986
3035.34926	-0.0063568680
3033.42083	-0.0063580414
3031.49240	-0.0063583986
3029.56397	-0.0063626841
3027.63554	-0.0063678878
3025.70711	-0.0063701328
3023.77868	-0.0063721226
3021.85025	-0.0063713570
3019.92182	-0.0063607963
3017.99339	-0.0063469699
3016.06496	-0.0063479394
3014.13653	-0.0063650310
3012.20810	-0.0063817645
3010.27967	-0.0063901315
3008.35124	-0.0063948757
3006.42281	-0.0064013037
3004.49438	-0.0064078337
3002.56595	-0.0064101289
3000.63752	-0.0064110472
2998.70909	-0.0064166589
2996.78066	-0.0064248717
2994.85223	-0.0064291568
2992.92380	-0.0064317584
2990.99536	-0.0064365533
2989.06693	-0.0064407871
2987.13850	-0.0064401240
2985.21007	-0.0064403280
2983.28164	-0.0064476221
2981.35321	-0.0064551714
2979.42478	-0.0064558345
2977.49635	-0.0064526722
2975.56792	-0.0064516519
2973.63949	-0.0064554266
2971.71106	-0.0064602215
2969.78263	-0.0064612413
2967.85420	-0.0064647608
2965.92577	-0.0064774104
2963.99734	-0.0064937831
2962.06891	-0.0065077068
2960.14048	-0.0065169889
2958.21205	-0.0065207630
2956.28362	-0.0065182131
2954.35519	-0.0065066866
2952.42676	-0.0064855712
2950.49833	-0.0064606294
2948.56990	-0.0064414502
2946.64147	-0.0064315032
2944.71304	-0.0064298706
2942.78461	-0.0064356858
2940.85618	-0.0064470102
2938.92775	-0.0064657810
2936.99932	-0.0064958739
2935.07089	-0.0065315748
2933.14246	-0.0065652840
2931.21403	-0.0065953191
2929.28560	-0.0066194376
2927.35717	-0.0066343262
2925.42874	-0.0066373851
2923.50031	-0.0066215792
2921.57187	-0.0065835910
2919.64344	-0.0065275971
2917.71501	-0.0064612925
2915.78658	-0.0063943146
2913.85815	-0.0063325819
2911.92972	-0.0062743099
2910.00129	-0.0062186844
2908.07286	-0.0061693299
2906.14443	-0.0061284946
2904.21600	-0.0060932711
2902.28757	-0.0060594743
2900.35914	-0.0060271556
2898.43071	-0.0060006557
2896.50228	-0.0059797200
2894.57385	-0.0059639919
2892.64542	-0.0059543401
2890.71699	-0.0059482632
2888.78856	-0.0059423395
2886.86013	-0.0059368750
2884.93170	-0.0059361602
2883.00327	-0.0059414203
2881.07484	-0.0059475992
2879.14641	-0.0059534209
2877.21798	-0.0059612854
2875.28955	-0.0059694047
2873.36112	-0.0059754304
2871.43269	-0.0059819156
2869.50426	-0.0059893196
2867.57583	-0.0059965705
2865.64740	-0.0060075489
2863.71897	-0.0060273088
2861.79054	-0.0060559008
2859.86211	-0.0060911272
2857.93368	-0.0061303833
2856.00525	-0.0061647873
2854.07681	-0.0061832131
2852.14838	-0.0061824988
2850.21995	-0.0061651957
2848.29152	-0.0061372747
2846.36309	-0.0061103217
2844.43466	-0.0060931183
2842.50623	-0.0060845925
2840.57780	-0.0060793851
2838.64937	-0.0060760668
2836.72094	-0.0060757096
2834.79251	-0.0060767815
2832.86408	-0.0060767303
2830.93565	-0.0060753012
2829.00722	-0.0060761180
2827.07879	-0.0060812230
2825.15036	-0.0060858689
2823.22193	-0.0060883705
2821.29350	-0.0060919952
2819.36507	-0.0060960790
2817.43664	-0.0060997545
2815.50821	-0.0061050639
2813.57978	-0.0061114961
2811.65135	-0.0061159884
2809.72292	-0.0061192042
2807.79449	-0.0061239004
2805.86606	-0.0061279330
2803.93763	-0.0061299242
2802.00920	-0.0061321189
2800.08077	-0.0061346204
2798.15234	-0.0061364071
2796.22391	-0.0061375811
2794.29548	-0.0061393674
2792.36705	-0.0061431448
2790.43862	-0.0061488110
2788.51019	-0.0061524860
2786.58176	-0.0061509549
2784.65332	-0.0061475858
2782.72489	-0.0061470754
2780.79646	-0.0061485046
2778.86803	-0.0061491681
2776.93960	-0.0061485558
2775.01117	-0.0061491169
2773.08274	-0.0061536599
2771.15431	-0.0061598364
2769.22588	-0.0061607552
2767.29745	-0.0061558550
2765.36902	-0.0061546806
2763.44059	-0.0061618267
2761.51216	-0.0061707594
2759.58373	-0.0061741280
2757.65530	-0.0061715757
2755.72687	-0.0061676968
2753.79844	-0.0061674416
2751.87001	-0.0061708102
2749.94158	-0.0061731581
2748.01315	-0.0061726989
2746.08472	-0.0061723925
2744.15629	-0.0061724437
2742.22786	-0.0061713206
2740.29943	-0.0061712186
2738.37100	-0.0061731581
2736.44257	-0.0061745364
2734.51414	-0.0061746384
2732.58571	-0.0061731073
2730.65728	-0.0061701466
2728.72885	-0.0061683091
2726.80042	-0.0061694323
2724.87199	-0.0061717289
2722.94356	-0.0061724945
2721.01513	-0.0061717289
2719.08670	-0.0061710654
2717.15827	-0.0061732600
2715.22983	-0.0061796405
2713.30140	-0.0061851526
2711.37297	-0.0061854590
2709.44454	-0.0061820392
2707.51611	-0.0061806100
2705.58768	-0.0061843363
2703.65925	-0.0061869901
2701.73082	-0.0061850506
2699.80239	-0.0061829579
2697.87396	-0.0061838254
2695.94553	-0.0061858674
2694.01710	-0.0061885212
2692.08867	-0.0061920942
2690.16024	-0.0061943908
2688.23181	-0.0061927577
2686.30338	-0.0061902567
2684.37495	-0.0061919410
2682.44652	-0.0061969939
2680.51809	-0.0062020975
2678.58966	-0.0062044454
2676.66123	-0.0062050065
2674.73280	-0.0062072012
2672.80437	-0.0062117944
2670.87594	-0.0062142955
2668.94751	-0.0062117944
2667.01908	-0.0062073544
2665.09065	-0.0062058233
2663.16222	-0.0062084771
2661.23379	-0.0062135807
2659.30536	-0.0062200115
2657.37693	-0.0062286877
2655.44850	-0.0062400172
2653.52007	-0.0062543061
2651.59164	-0.0062727281
2649.66321	-0.0062944661
2647.73477	-0.0063177338
2645.80634	-0.0063415617
2643.87791	-0.0063660513
2641.94948	-0.0063898251
2640.02105	-0.0064108944
2638.09262	-0.0064326762
2636.16419	-0.0064574159
2634.23576	-0.0064838883
2632.30733	-0.0065090838
2630.37890	-0.0065287189
2628.45047	-0.0065465174
2626.52204	-0.0065692109
2624.59361	-0.0065938407
2622.66518	-0.0066157156
2620.73675	-0.0066375891
2618.80832	-0.0066571678
2616.87989	-0.0066731256
2614.95146	-0.0066917846
2613.02303	-0.0067150313
2611.09460	-0.0067390921
2609.16617	-0.0067606536
2607.23774	-0.0067771175
2605.30931	-0.0067884326
2603.38088	-0.0068006143
2601.45245	-0.0068191658
2599.52402	-0.0068433229
2597.59559	-0.0068701282
2595.66716	-0.0068955561
2593.73873	-0.0069169574
2591.81030	-0.0069322432
2589.88187	-0.0069391727
2587.95344	-0.0069467644
2586.02501	-0.0069671948
2584.09658	-0.0069912928
2582.16815	-0.0070034177
2580.23972	-0.0070092250
2578.31128	-0.0070188022
2576.38285	-0.0070292451
2574.45442	-0.0070371921
2572.52599	-0.0070442725
2570.59756	-0.0070515568
2568.66913	-0.0070589427
2566.74070	-0.0070688245
2564.81227	-0.0070876703
2562.88384	-0.0071075340
2560.95541	-0.0071128309
2559.02698	-0.0071106921
2557.09855	-0.0071141045
2555.17012	-0.0071174656
2553.24169	-0.0071145627
2551.31326	-0.0071110483
2549.38483	-0.0071150721
2547.45640	-0.0071297907
2545.52797	-0.0071455273
2543.59954	-0.0071474118
2541.67111	-0.0071446109
2539.74268	-0.0071509257
2537.81425	-0.0071587171
2535.88582	-0.0071621803
2533.95739	-0.0071622310
2532.02896	-0.0071555600
2530.10053	-0.0071524023
2528.17210	-0.0071613146
2526.24367	-0.0071726199
2524.31524	-0.0071806149
2522.38681	-0.0071879476
2520.45838	-0.0071931924
2518.52995	-0.0071892207
2516.60152	-0.0071765408
2514.67309	-0.0071644718
2512.74466	-0.0071508237
2510.81623	-0.0071376846
2508.88779	-0.0071453745
2506.95936	-0.0071665598
2505.03093	-0.0071690041
2503.10250	-0.0071546943
2501.17407	-0.0071449163
2499.24564	-0.0071402821
2497.31721	-0.0071425736
2495.38878	-0.0071553052
2493.46035	-0.0071724672
2491.53192	-0.0071909521
2489.60349	-0.0071995067
2487.67506	-0.0071866238
2485.74663	-0.0071662031
2483.81820	-0.0071564764
2481.88977	-0.0071474626
2479.96134	-0.0071323370
2478.03291	-0.0071286191
2476.10448	-0.0071401801
2474.17605	-0.0071510784
2472.24762	-0.0071534719
2470.31919	-0.0071506710
2468.39076	-0.0071460875
2466.46233	-0.0071437960
2464.53390	-0.0071474118
2462.60547	-0.0071546431
2460.67704	-0.0071570878
2458.74861	-0.0071505690
2456.82018	-0.0071377866
2454.89175	-0.0071278554
2452.96332	-0.0071310131
2451.03489	-0.0071398234
2449.10646	-0.0071405363
2447.17803	-0.0071370732
2445.24960	-0.0071374807
2443.32117	-0.0071389070
2441.39273	-0.0071397726
2439.46430	-0.0071432865
2437.53587	-0.0071483282
2435.60744	-0.0071439994
2433.67901	-0.0071286703
2431.75058	-0.0071182298
2429.82215	-0.0071180770
2427.89372	-0.0071167527
2425.96529	-0.0071150721
2424.03686	-0.0071185860
2422.10843	-0.0071201650
2420.18000	-0.0071190954
2418.25157	-0.0071171601
2416.32314	-0.0071033067
2414.39471	-0.0070796227
2412.46628	-0.0070640366
2410.53785	-0.0070551224
2408.60942	-0.0070436611
2406.68099	-0.0070345942
2404.75256	-0.0070297038
2402.82413	-0.0070241001
2400.89570	-0.0070123328
2398.96727	-0.0070031118
2397.03884	-0.0069853831
2395.11041	-0.0069704046
2393.18198	-0.0069508404
2391.25355	-0.0069302563
2389.32512	-0.0069185370
2387.39669	-0.0069093141
2385.46826	-0.0068927025
2383.53983	-0.0068690074
2381.61140	-0.0068404181
2379.68297	-0.0068137124
2377.75454	-0.0067966897
2375.82611	-0.0067838454
2373.89768	-0.0067638648
2371.96924	-0.0067372569
2370.04081	-0.0067121764
2368.11238	-0.0066906121
2366.18395	-0.0066705765
2364.25552	-0.0066532930
2362.32709	-0.0066379970
2360.39866	-0.0066220379
2358.47023	-0.0066089337
2356.54180	-0.0066044978
2354.61337	-0.0066067413
2352.68494	-0.0066088317
2350.75651	-0.0066061295
2348.82808	-0.0065977159
2346.89965	-0.0065874662
2344.97122	-0.0065834378
2343.04279	-0.0065869563
2341.11436	-0.0065879254
2339.18593	-0.0065837950
2337.25750	-0.0065847640
2335.32907	-0.0065936875
2333.40064	-0.0066053644
2331.47221	-0.0066218339
2329.54378	-0.0066454411
2327.61535	-0.0066612465
2325.68692	-0.0066536497
2323.75849	-0.0066403933
2321.83006	-0.0066589010
2319.90163	-0.0067090667
2317.97320	-0.0067595323
2316.04477	-0.0067997985
2314.11634	-0.0068375641
2312.18791	-0.0068790969
2310.25948	-0.0069267405
2308.33105	-0.0069745826
2306.40262	-0.0070203817
2304.47419	-0.0070664813
2302.54575	-0.0071083489
2300.61732	-0.0071477173
2298.68889	-0.0071913083
2296.76046	-0.0072362702
2294.83203	-0.0072778668
2292.90360	-0.0073158960
2290.97517	-0.0073554493
2289.04674	-0.0073999357
2287.11831	-0.0074470132
2285.18988	-0.0075002932
2283.26145	-0.0075514303
2281.33302	-0.0075851111
2279.40459	-0.0076220455
2277.47616	-0.0076907161
2275.54773	-0.0077792597
2273.61930	-0.0078644296
2271.69087	-0.0079369256
2269.76244	-0.0079900445
2267.83401	-0.0080276048
2265.90558	-0.0080677029
2263.97715	-0.0081234481
2262.04872	-0.0081923949
2260.12029	-0.0082699666
2258.19186	-0.0083587989
2256.26343	-0.0084483745
2254.33500	-0.0085264081
2252.40657	-0.0086089447
2250.47814	-0.0086864419
2248.54971	-0.0086984681
2246.62128	-0.0087193241
2244.69285	-0.0087580904
2242.76442	-0.0088443877
2240.83599	-0.0089760078
2238.90756	-0.0091073336
2236.97913	-0.0092232134
2235.05069	-0.0093371356
2233.12226	-0.0094133886
2231.19383	-0.0094705317
2229.26540	-0.0095693991
2227.33697	-0.0096781170
2225.40854	-0.0097844293
2223.48011	-0.0099026076
2221.55168	-0.0099942936
2219.62325	-0.0100712916
2217.69482	-0.0101560643
2215.76639	-0.0102545228
2213.83796	-0.0103634745
2211.90953	-0.0104263555
2209.98110	-0.0104391426
2208.05267	-0.0104667880
2206.12424	-0.0105754845
2204.19581	-0.0107868863
2202.26738	-0.0109626474
2200.33895	-0.0109618399
2198.41052	-0.0108740944
2196.48209	-0.0108594513
2194.55366	-0.0109308939
2192.62523	-0.0109747630
2190.69680	-0.0110055041
2188.76837	-0.0111498432
2186.83994	-0.0113817444
2184.91151	-0.0116096912
2182.98308	-0.0118720774
2181.05465	-0.0121036936
2179.12622	-0.0121205105
2177.19779	-0.0119666727
2175.26936	-0.0118359560
2173.34093	-0.0118319765
2171.41250	-0.0119698457
2169.48407	-0.0122130886
2167.55564	-0.0125875799
2165.62720	-0.0131894201
2163.69877	-0.0138717201
2161.77034	-0.0144885099
2159.84191	-0.0151549233
2157.91348	-0.0153745525
2155.98505	-0.0146583244
2154.05662	-0.0136675341
2152.12819	-0.0130090816
2150.19976	-0.0126159946
2148.27133	-0.0122260246
2146.34290	-0.0118272910
2144.41447	-0.0115348818
2142.48604	-0.0113113346
2140.55761	-0.0110509815
2138.62918	-0.0107637560
2136.70075	-0.0105618425
2134.77232	-0.0104324203
2132.84389	-0.0102470396
2130.91546	-0.0100048678
2128.98703	-0.0097748116
2127.05860	-0.0095805405
2125.13017	-0.0094471788
2123.20174	-0.0093811154
2121.27331	-0.0093256338
2119.34488	-0.0092613762
2117.41645	-0.0092223007
2115.48802	-0.0091956910
2113.55959	-0.0091674067
2111.63116	-0.0091689778
2109.70273	-0.0092101870
2107.77430	-0.0092481486
2105.84587	-0.0092538251
2103.91744	-0.0092581837
2101.98901	-0.0092890467
2100.06058	-0.0093254307
2098.13215	-0.0093561374
2096.20371	-0.0093645481
2094.27528	-0.0093142828
2092.34685	-0.0092247846
2090.41842	-0.0091596004
2088.48999	-0.0091384100
2086.56156	-0.0091559505
2084.63313	-0.0092075514
2082.70470	-0.0092853475
2080.77627	-0.0093982909
2078.84784	-0.0095403288
2076.91941	-0.0096690040
2074.99098	-0.0097709140
2073.06255	-0.0098620718
2071.13412	-0.0099843778
2069.20569	-0.0101668872
2067.27726	-0.0103331422
2065.34883	-0.0104247881
2063.42040	-0.0105059547
2061.49197	-0.0105897328
2059.56354	-0.0106376782
2057.63511	-0.0107022878
2055.70668	-0.0108334469
2053.77825	-0.0110022742
2051.84982	-0.0112514570
2049.92139	-0.0116965827
2047.99296	-0.0122902971
2046.06453	-0.0128070032
2044.13610	-0.0131484866
2042.20767	-0.0134111000
2040.27924	-0.0137066636
2038.35081	-0.0140848318
2036.42238	-0.0145249609
2034.49395	-0.0149574932
2032.56552	-0.0152785471
2030.63709	-0.0154165262
2028.70865	-0.0154499030
2026.78022	-0.0154198743
2024.85179	-0.0152517064
2022.92336	-0.0150007075
2020.99493	-0.0147871440
2019.06650	-0.0146771949
2017.13807	-0.0146711888
2015.20964	-0.0146677848
2013.28121	-0.0146539202
2011.35278	-0.0147128794
2009.42435	-0.0147432080
2007.49592	-0.0145347249
2005.56749	-0.0140880393
2003.63906	-0.0135837449
2001.71063	-0.0131456740
1999.78220	-0.0128239933
1997.85377	-0.0126365628
1995.92534	-0.0125280796
1993.99691	-0.0124523714
1992.06848	-0.0123957209
1990.14005	-0.0123549635
1988.21162	-0.0123934560
1986.28319	-0.0125427665
1984.35476	-0.0127678933
1982.42633	-0.0131730977
1980.49790	-0.0138418330
1978.56947	-0.0144554097
1976.64104	-0.0145237092
1974.71261	-0.0141671207
1972.78418	-0.0138734244
1970.85575	-0.0136917140
1968.92732	-0.0134673677
1966.99889	-0.0132029308
1965.07046	-0.0128841065
1963.14203	-0.0124617293
1961.21360	-0.0119679319
1959.28516	-0.0114859762
1957.35673	-0.0111042252
1955.42830	-0.0108398590
1953.49987	-0.0106281294
1951.57144	-0.0104245357
1949.64301	-0.0101950560
1947.71458	-0.0099534625
1945.78615	-0.0097660040
1943.85772	-0.0096128490
1941.92929	-0.0094329435
1940.00086	-0.0092636067
1938.07243	-0.0091709038
1936.14400	-0.0091337971
1934.21557	-0.0090724528
1932.28714	-0.0089731170
1930.35871	-0.0088737579
1928.43028	-0.0087801609
1926.50185	-0.0086677158
1924.57342	-0.0085361041
1922.64499	-0.0084194317
1920.71656	-0.0083494037
1918.78813	-0.0083093820
1916.85970	-0.0082585886
1914.93127	-0.0081827929
1913.00284	-0.0081286309
1911.07441	-0.0081349825
1909.14598	-0.0081566777
1907.21755	-0.0081304088
1905.28912	-0.0080634346
1903.36069	-0.0080066146
1901.43226	-0.0079731187
1899.50383	-0.0079456186
1897.57540	-0.0079237092
1895.64697	-0.0079008825
1893.71854	-0.0078603113
1891.79011	-0.0078148050
1889.86167	-0.0077858707
1887.93324	-0.0077672587
1886.00481	-0.0077374061
1884.07638	-0.0076932083
1882.14795	-0.0076493113
1880.21952	-0.0076241819
1878.29109	-0.0076167039
1876.36266	-0.0076066311
1874.43423	-0.0075855693
1872.50580	-0.0075566708
1870.57737	-0.0075211050
1868.64894	-0.0074923551
1866.72051	-0.0074790227
1864.79208	-0.0074690995
1862.86365	-0.0074614659
1860.93522	-0.0074542905
1859.00679	-0.0074339844
1857.07836	-0.0074015134
1855.14993	-0.0073780492
1853.22150	-0.0073687853
1851.29307	-0.0073603359
1849.36464	-0.0073433849
1847.43621	-0.0073207323
1845.50778	-0.0072911545
1843.57935	-0.0072624912
1841.65092	-0.0072456896
1839.72249	-0.0072330115
1837.79406	-0.0072264429
1835.86563	-0.0072162594
1833.93720	-0.0071952296
1832.00877	-0.0071639628
1830.08034	-0.0071360040
1828.15191	-0.0071292813
1826.22348	-0.0071204198
1824.29505	-0.0071041216
1822.36661	-0.0070902682
1820.43818	-0.0070759044
1818.50975	-0.0070587392
1816.58132	-0.0070328619
1814.65289	-0.0069937380
1812.72446	-0.0069490573
1810.79603	-0.0069117602
1808.86760	-0.0068845497
1806.93917	-0.0068656947
1805.01074	-0.0068563181
1803.08231	-0.0068491325
1801.15388	-0.0068402141
1799.22545	-0.0068305312
1797.29702	-0.0068182996
1795.36859	-0.0068063731
1793.44016	-0.0067928159
1791.51173	-0.0067860880
1789.58330	-0.0067854254
1787.65487	-0.0067751296
1785.72644	-0.0067599909
1783.79801	-0.0067515294
1781.86958	-0.0067476043
1779.94115	-0.0067454637
1778.01272	-0.0067437817
1776.08429	-0.0067343004
1774.15586	-0.0067133997
1772.22743	-0.0066938237
1770.29900	-0.0066908160
1768.37057	-0.0066791922
1766.44214	-0.0066775610
1764.51371	-0.0066787335
1762.58528	-0.0066704233
1760.65685	-0.0066705253
1758.72842	-0.0066725137
1756.79999	-0.0066721570
1754.87156	-0.0066852081
1752.94312	-0.0066901022
1751.01469	-0.0066909180
1749.08626	-0.0067042238
1747.15783	-0.0067118197
1745.22940	-0.0067150313
1743.30097	-0.0067132977
1741.37254	-0.0067022867
1739.44411	-0.0066895415
1737.51568	-0.0066890316
1735.58725	-0.0066618584
1733.65882	-0.0066318787
1731.73039	-0.0066334084
1729.80196	-0.0066198455
1727.87353	-0.0065996023
1725.94510	-0.0065832851
1724.01667	-0.0065707914
1722.08824	-0.0065661510
1720.15981	-0.0065578385
1718.23138	-0.0065365219
1716.30295	-0.0065384088
1714.37452	-0.0065502403
1712.44609	-0.0065523819
1710.51766	-0.0065476904
1708.58923	-0.0065375930
1706.66080	-0.0065217321
1704.73237	-0.0065119909
1702.80394	-0.0064999545
1700.87551	-0.0064635877
1698.94708	-0.0064637917
1697.01865	-0.0064493567
1695.09022	-0.0064282892
1693.16179	-0.0064385934
1691.23336	-0.0064253309
1689.30493	-0.0064127306
1687.37650	-0.0064049768
1685.44807	-0.0063696736
1683.51963	-0.0063567148
1681.59120	-0.0063628880
1679.66277	-0.0063474802
1677.73434	-0.0063323267
1675.80591	-0.0063088555
1673.87748	-0.0063001812
1671.94905	-0.0062899250
1670.02062	-0.0062646144
1668.09219	-0.0062503256
1666.16376	-0.0062385881
1664.23533	-0.0062122028
1662.30690	-0.0061905631
1660.37847	-0.0061812224
1658.45004	-0.0061714225
1656.52161	-0.0061627454
1654.59318	-0.0061209910
1652.66475	-0.0060842861
1650.73632	-0.0061001121
1648.80789	-0.0060828570
1646.87946	-0.0060450770
1644.95103	-0.0060349163
1643.02260	-0.0060322103
1641.09417	-0.0060198545
1639.16574	-0.0060136761
1637.23731	-0.0060003493
1635.30888	-0.0059878388
1633.38045	-0.0060013193
1631.45202	-0.0060037193
1629.52359	-0.0059990725
1627.59516	-0.0060013193
1625.66673	-0.0060095913
1623.73830	-0.0060131145
1621.80987	-0.0060278196
1619.88144	-0.0060423198
1617.95301	-0.0060331807
1616.02457	-0.0060364483
1614.09614	-0.0060616187
1612.16771	-0.0060682558
1610.23928	-0.0060745864
1608.31085	-0.0060845925
1606.38242	-0.0060941391
1604.45399	-0.0061013880
1602.52556	-0.0061064931
1600.59713	-0.0061130272
1598.66870	-0.0061216033
1596.74027	-0.0061282907
1594.81184	-0.0061331401
1592.88341	-0.0061397250
1590.95498	-0.0061482494
1589.02655	-0.0061581009
1587.09812	-0.0061664716
1585.16969	-0.0061711674
1583.24126	-0.0061719841
1581.31283	-0.0061729029
1579.38440	-0.0061784666
1577.45597	-0.0061679007
1575.52754	-0.0061658081
1573.59911	-0.0061887763
1571.67068	-0.0061866329
1569.74225	-0.0061783642
1567.81382	-0.0061878068
1565.88539	-0.0061935233
1563.95696	-0.0062019955
1562.02853	-0.0062068440
1560.10010	-0.0061830091
1558.17167	-0.0061848974
1556.24324	-0.0062072524
1554.31481	-0.0062004644
1552.38638	-0.0062013320
1550.45795	-0.0062034247
1548.52952	-0.0062097022
1546.60108	-0.0062136832
1544.67265	-0.0062146015
1542.74422	-0.0062174085
1540.81579	-0.0062087323
1538.88736	-0.0062104678
1536.95893	-0.0062333825
1535.03050	-0.0062284833
1533.10207	-0.0062215426
1531.17364	-0.0062305760
1529.24521	-0.0062329234
1527.31678	-0.0062340461
1525.38835	-0.0062409355
1523.45992	-0.0062429258
1521.53149	-0.0062300144
1519.60306	-0.0062386394
1517.67463	-0.0062395069
1515.74620	-0.0062364447
1513.81777	-0.0062400172
1511.88934	-0.0062454264
1509.96091	-0.0062548677
1508.03248	-0.0062423646
1506.10405	-0.0062320558
1504.17562	-0.0062525203
1502.24719	-0.0062542553
1500.31876	-0.0062447120
1498.39033	-0.0062383329
1496.46190	-0.0062301164
1494.53347	-0.0062331785
1492.60504	-0.0062296060
1490.67661	-0.0062110289
1488.74818	-0.0061928085
1486.81975	-0.0061663184
1484.89132	-0.0061300262
1482.96289	-0.0060857157
1481.03446	-0.0060472214
1479.10603	-0.0060258280
1477.17759	-0.0060111228
1475.24916	-0.0059947325
1473.32073	-0.0059684347
1471.39230	-0.0059527573
1469.46387	-0.0059395307
1467.53544	-0.0059053642
1465.60701	-0.0058554634
1463.67858	-0.0058087748
1461.75015	-0.0057613151
1459.82172	-0.0057008211
1457.89329	-0.0056256512
1455.96486	-0.0055747977
1454.03643	-0.0055443854
1452.10800	-0.0055019069
1450.17957	-0.0054681660
1448.25114	-0.0054413760
1446.32271	-0.0054233791
1444.39428	-0.0054059946
1442.46585	-0.0053826268
1440.53742	-0.0053526610
1438.60899	-0.0053000371
1436.68056	-0.0052220356
1434.75213	-0.0051441737
1432.82370	-0.0050507411
1430.89527	-0.0049603595
1428.96684	-0.0049008285
1427.03841	-0.0048759491
1425.10998	-0.0048808637
1423.18155	-0.0049225329
1421.25312	-0.0049866163
1419.32469	-0.0050602593
1417.39626	-0.0051548663
1415.46783	-0.0052358466
1413.53940	-0.0052960478
1411.61097	-0.0053417175
1409.68253	-0.0053741895
1407.75410	-0.0053944387
1405.82567	-0.0054072216
1403.89724	-0.0054238904
1401.96881	-0.0054413760
1400.04038	-0.0054509882
1398.11195	-0.0054646386
1396.18352	-0.0054777260
1394.25509	-0.0054826853
1392.32666	-0.0054853433
1390.39823	-0.0054707732
1388.46980	-0.0054322756
1386.54137	-0.0053771557
1384.61294	-0.0053031058
1382.68451	-0.0052022901
1380.75608	-0.0050831325
1378.82765	-0.0049508396
1376.89922	-0.0048117470
1374.97079	-0.0046693836
1373.04236	-0.0045387573
1371.11393	-0.0044401726
1369.18550	-0.0043880017
1367.25707	-0.0043803654
1365.32864	-0.0043868232
1363.40021	-0.0043850802
1361.47178	-0.0043844143
1359.54335	-0.0043956381
1357.61492	-0.0044151130
1355.68649	-0.0044389428
1353.75806	-0.0044741980
1351.82963	-0.0045220549
1349.90120	-0.0045617609
1347.97277	-0.0045696502
1346.04434	-0.0045364005
1344.11591	-0.0044655381
1342.18748	-0.0043702684
1340.25904	-0.0042682104
1338.33061	-0.0041762302
1336.40218	-0.0041055656
1334.47375	-0.0040683313
1332.54532	-0.0040724343
1330.61689	-0.0041067451
1328.68846	-0.0041416171
1326.76003	-0.0041487450
1324.83160	-0.0041118735
1322.90317	-0.0040283748
1320.97474	-0.0039084847
1319.04631	-0.0037741906
1317.11788	-0.0036601336
1315.18945	-0.0036010914
1313.26102	-0.0036153137
1311.33259	-0.0036955550
1309.40416	-0.0038182754
1307.47573	-0.0039617391
1305.54730	-0.0041130017
1303.61887	-0.0042620073
1301.69044	-0.0044004042
1299.76201	-0.0045228745
1297.83358	-0.0046245651
1295.90515	-0.0046981676
1293.97672	-0.0047443607
1292.04829	-0.0047748294
1290.11986	-0.0047960281
1288.19143	-0.0048003802
1286.26300	-0.0047789770
1284.33457	-0.0047337604
1282.40614	-0.0046861828
1280.47771	-0.0046669254
1278.54928	-0.0046847491
1276.62085	-0.0047210087
1274.69242	-0.0047600819
1272.76399	-0.0048018652
1270.83555	-0.0048457435
1268.90712	-0.0048861876
1266.97869	-0.0049205879
1265.05026	-0.0049477681
1263.12183	-0.0049658874
1261.19340	-0.0049795532
1259.26497	-0.0049954704
1257.33654	-0.0050115916
1255.40811	-0.0050221342
1253.47968	-0.0050250003
1251.55125	-0.0050189616
1249.62282	-0.0050060647
1247.69439	-0.0049975174
1245.76596	-0.0050052968
1243.83753	-0.0050284802
1241.90910	-0.0050550909
1239.98067	-0.0050739734
1238.05224	-0.0050806254
1236.12381	-0.0050817002
1234.19538	-0.0050936225
1232.26695	-0.0051289271
1230.33852	-0.0051856129
1228.41009	-0.0052540563
1226.48166	-0.0053294441
1224.55323	-0.0054086535
1222.62480	-0.0054831454
1220.69637	-0.0055460213
1218.76794	-0.0055950889
1216.83951	-0.0056272354
1214.91108	-0.0056350031
1212.98265	-0.0056052082
1211.05422	-0.0055242968
1209.12579	-0.0053993473
1207.19736	-0.0052680201
1205.26893	-0.0051718005
1203.34049	-0.0051263687
1201.41206	-0.0051268293
1199.48363	-0.0051665823
1197.55520	-0.0052367677
1195.62677	-0.0053236652
1193.69834	-0.0054162717
1191.76991	-0.0055016512
1189.84148	-0.0055647288
1187.91305	-0.0055963667
1185.98462	-0.0055920733
1184.05619	-0.0055510304
1182.12776	-0.0054705688
1180.19933	-0.0053445813
1178.27090	-0.0051674009
1176.34247	-0.0049263723
1174.41404	-0.0045976210
1172.48561	-0.0041587446
1170.55718	-0.0036036074
1168.62875	-0.0029606626
1166.70032	-0.0023051777
1164.77189	-0.0017424566
1162.84346	-0.0013661812
1160.91503	-0.0012178307
1158.98660	-0.0012712097
1157.05817	-0.0014575201
1155.12974	-0.0017092993
1153.20131	-0.0019862372
1151.27288	-0.0022696943
1149.34445	-0.0025439076
1147.41602	-0.0028025683
1145.48759	-0.0030547001
1143.55916	-0.0032961012
1141.63073	-0.0034970553
1139.70230	-0.0036214748
1137.77387	-0.0036383145
1135.84544	-0.0035385494
1133.91700	-0.0033482492
1131.98857	-0.0030956196
1130.06014	-0.0027794200
1128.13171	-0.0023893686
1126.20328	-0.0019480992
1124.27485	-0.0015120046
1122.34642	-0.0011119308
1120.41799	-0.0007159332
1118.48956	-0.0002590930
1116.56113	0.0003028161
1114.63270	0.0009274484
1112.70427	0.0014768175
1110.77584	0.0018326791
1108.84741	0.0019923465
1106.91898	0.0020254781
1104.99055	0.0019804623
1103.06212	0.0018556077
1101.13369	0.0016412910
1099.20526	0.0013598198
1097.27683	0.0010555914
1095.34840	0.0007699095
1093.41997	0.0005331639
1091.49154	0.0003667519
1089.56311	0.0002803837
1087.63468	0.0002669146
1085.70625	0.0003208456
1083.77782	0.0004668713
1081.84939	0.0007434597
1079.92096	0.0011565706
1077.99253	0.0016623385
1076.06410	0.0021918246
1074.13567	0.0027053903
1072.20724	0.0032287962
1070.27881	0.0038182975
1068.35038	0.0045150965
1066.42195	0.0053335978
1064.49351	0.0062520606
1062.56508	0.0071869977
1060.63665	0.0079904366
1058.70822	0.0085295737
1056.77979	0.0087819723
1054.85136	0.0088015990
1052.92293	0.0086263642
1050.99450	0.0082801180
1049.06607	0.0078174528
1047.13764	0.0073248465
1045.20921	0.0069132196
1043.28078	0.0067078024
1041.35235	0.0068081063
1039.42392	0.0072320299
1037.49549	0.0078758625
1035.56706	0.0085440669
1033.63863	0.0090415487
1031.71020	0.0092666363
1029.78177	0.0092352219
1027.85334	0.0090279104
1025.92491	0.0087294104
1023.99648	0.0084077045
1022.06805	0.0081083644
1020.13962	0.0078533785
1018.21119	0.0076508881
1016.28276	0.0074963435
1014.35433	0.0073600989
1012.42590	0.0072026569
1010.49747	0.0070177275
1008.56904	0.0068422644
1006.64061	0.0067142169
1004.71218	0.0066433470
1002.78375	0.0066136457
1000.85532	0.0065883622
998.92689	0.0065270513
996.99845	0.0064150691
995.07002	0.0062661371
993.14159	0.0061057839
991.21316	0.0059659067
989.28473	0.0058733542
987.35630	0.0058235037
985.42787	0.0057551661
983.49944	0.0055674952
981.57101	0.0051993662
979.64258	0.0046888106
977.71415	0.0041323341
975.78572	0.0036105537
973.85729	0.0031611782
971.92886	0.0027881258
970.00043	0.0024759446
968.07200	0.0022001762
966.14357	0.0019394296
964.21514	0.0016864015
962.28671	0.0014370270
960.35828	0.0011864199
958.42985	0.0009380585
956.50142	0.0006948950
954.57299	0.0004576202
952.64456	0.0002342017
950.71613	0.0000311419
948.78770	-0.0001536837
946.85927	-0.0003230403
944.93084	-0.0004758339
943.00241	-0.0006135298
941.07398	-0.0007415173
939.14555	-0.0008606317
937.21712	-0.0009682458
935.28869	-0.0010649880
933.36026	-0.0011549961
931.43183	-0.0012430239
929.50340	-0.0013319629
927.57496	-0.0014219673
925.64653	-0.0015093219
923.71810	-0.0015928418
921.78967	-0.0016717041
919.86124	-0.0017378674
917.93281	-0.0017861812
916.00438	-0.0018192296
914.07595	-0.0018358302
912.14752	-0.0018344382
910.21909	-0.0018178376
908.29066	-0.0017899451
906.36223	-0.0017485411
904.43380	-0.0016890324
902.50537	-0.0016199218
900.57694	-0.0015571970
898.64851	-0.0015083416
