3997.63597	-0.0077169100
3995.70754	-0.0077160960
3993.77911	-0.0077160960
3991.85068	-0.0077159945
3989.92225	-0.0077155367
3987.99382	-0.0077177742
3986.06539	-0.0077215889
3984.13696	-0.0077217924
3982.20853	-0.0077179270
3980.28010	-0.0077139093
3978.35167	-0.0077127903
3976.42324	-0.0077157910
3974.49481	-0.0077202665
3972.56638	-0.0077213855
3970.63795	-0.0077194530
3968.70952	-0.0077184867
3966.78109	-0.0077183847
3964.85266	-0.0077171642
3962.92423	-0.0077158925
3960.99580	-0.0077171135
3959.06737	-0.0077213347
3957.13894	-0.0077269799
3955.21051	-0.0077306419
3953.28207	-0.0077308454
3951.35364	-0.0077291671
3949.42521	-0.0077276919
3947.49678	-0.0077271834
3945.56835	-0.0077288616
3943.63992	-0.0077332356
3941.71149	-0.0077372026
3939.78306	-0.0077385250
3937.85463	-0.0077391351
3935.92620	-0.0077388808
3933.99777	-0.0077344053
3932.06934	-0.0077279974
3930.14091	-0.0077257594
3928.21248	-0.0077287601
3926.28405	-0.0077348631
3924.35562	-0.0077421865
3922.42719	-0.0077466113
3920.49876	-0.0077456958
3918.57033	-0.0077436613
3916.64190	-0.0077454415
3914.71347	-0.0077483910
3912.78504	-0.0077487472
3910.85661	-0.0077476283
3908.92818	-0.0077446275
3906.99975	-0.0077406098
3905.07132	-0.0077407626
3903.14289	-0.0077467128
3901.21446	-0.0077528157
3899.28603	-0.0077543412
3897.35760	-0.0077529172
3895.42917	-0.0077543920
3893.50074	-0.0077620205
3891.57231	-0.0077691907
3889.64388	-0.0077677672
3887.71545	-0.0077604437
3885.78701	-0.0077575450
3883.85858	-0.0077632410
3881.93015	-0.0077716829
3880.00172	-0.0077745304
3878.07329	-0.0077710724
3876.14486	-0.0077690892
3874.21643	-0.0077726492
3872.28800	-0.0077767172
3870.35957	-0.0077781412
3868.43114	-0.0077792597
3866.50271	-0.0077805314
3864.57428	-0.0077827689
3862.64585	-0.0077873962
3860.71742	-0.0077917697
3858.78899	-0.0077932952
3856.86056	-0.0077928375
3854.93213	-0.0077916170
3853.00370	-0.0077905999
3851.07527	-0.0077937017
3849.14684	-0.0078018378
3847.21841	-0.0078079910
3845.28998	-0.0078074825
3843.36155	-0.0078031090
3841.43312	-0.0077994480
3839.50469	-0.0078012785
3837.57626	-0.0078091095
3835.64783	-0.0078153126
3833.71940	-0.0078139398
3831.79097	-0.0078099230
3829.86254	-0.0078122620
3827.93411	-0.0078214146
3826.00568	-0.0078279236
3824.07725	-0.0078278724
3822.14882	-0.0078275166
3820.22039	-0.0078308219
3818.29196	-0.0078343302
3816.36352	-0.0078371773
3814.43509	-0.0078429226
3812.50666	-0.0078517701
3810.57823	-0.0078600068
3808.64980	-0.0078643793
3806.72137	-0.0078654466
3804.79294	-0.0078678876
3802.86451	-0.0078726662
3800.93608	-0.0078731747
3799.00765	-0.0078677349
3797.07922	-0.0078669209
3795.15079	-0.0078763273
3793.22236	-0.0078853257
3791.29393	-0.0078852242
3789.36550	-0.0078815641
3787.43707	-0.0078827329
3785.50864	-0.0078891385
3783.58021	-0.0078942738
3781.65178	-0.0078960536
3779.72335	-0.0078987982
3777.79492	-0.0079020523
3775.86649	-0.0079044923
3773.93806	-0.0079078982
3772.00963	-0.0079134908
3770.08120	-0.0079183197
3768.15277	-0.0079182182
3766.22434	-0.0079183709
3764.29591	-0.0079236068
3762.36748	-0.0079283351
3760.43905	-0.0079296054
3758.51062	-0.0079315882
3756.58219	-0.0079367226
3754.65376	-0.0079430770
3752.72533	-0.0079504987
3750.79690	-0.0079589877
3748.86847	-0.0079640197
3746.94003	-0.0079662567
3745.01160	-0.0079701198
3743.08317	-0.0079771848
3741.15474	-0.0079884687
3739.22631	-0.0080023957
3737.29788	-0.0080091553
3735.36945	-0.0080044288
3733.44102	-0.0080033615
3731.51259	-0.0080042258
3729.58416	-0.0080186091
3727.65573	-0.0080225738
3725.72730	-0.0080284178
3723.79887	-0.0080249617
3721.87044	-0.0080330940
3719.94201	-0.0080382777
3718.01358	-0.0080386847
3716.08515	-0.0080405651
3714.15672	-0.0080428515
3712.22829	-0.0080481879
3710.29986	-0.0080576912
3708.37143	-0.0080669913
3706.44300	-0.0080705490
3704.51457	-0.0080713108
3702.58614	-0.0080770534
3700.65771	-0.0080886399
3698.72928	-0.0080958558
3696.80085	-0.0080942810
3694.87242	-0.0080915364
3692.94399	-0.0080936197
3691.01556	-0.0080979392
3689.08713	-0.0081005311
3687.15870	-0.0080967704
3685.23027	-0.0080940770
3683.30184	-0.0080964658
3681.37341	-0.0081038335
3679.44497	-0.0081116082
3677.51654	-0.0081164362
3675.58811	-0.0081194341
3673.65968	-0.0081213135
3671.73125	-0.0081227878
3669.80282	-0.0081254803
3667.87439	-0.0081291394
3665.94596	-0.0081344238
3664.01753	-0.0081399614
3662.08910	-0.0081408257
3660.16067	-0.0081372689
3658.23224	-0.0081327464
3656.30381	-0.0081284782
3654.37538	-0.0081249727
3652.44695	-0.0081214663
3650.51852	-0.0081165880
3648.59009	-0.0081147589
3646.66166	-0.0081163850
3644.73323	-0.0081126252
3642.80480	-0.0081056124
3640.87637	-0.0081047993
3638.94794	-0.0081057139
3637.01951	-0.0081014456
3635.09108	-0.0081001753
3633.16265	-0.0081049521
3631.23422	-0.0081024617
3629.30579	-0.0081032244
3627.37736	-0.0080978377
3625.44893	-0.0080979904
3623.52050	-0.0080879796
3621.59207	-0.0080773076
3619.66364	-0.0080702445
3617.73521	-0.0080600297
3615.80678	-0.0080577424
3613.87835	-0.0080644507
3611.94992	-0.0080676526
3610.02148	-0.0080576409
3608.09305	-0.0080435630
3606.16462	-0.0080364486
3604.23619	-0.0080361431
3602.30776	-0.0080383793
3600.37933	-0.0080392435
3598.45090	-0.0080354828
3596.52247	-0.0080273505
3594.59404	-0.0080174906
3592.66561	-0.0080111884
3590.73718	-0.0080104768
3588.80875	-0.0080060549
3586.88032	-0.0079941107
3584.95189	-0.0079853684
3583.02346	-0.0079812007
3581.09503	-0.0079726614
3579.16660	-0.0079585295
3577.23817	-0.0079437373
3575.30974	-0.0079346895
3573.38131	-0.0079300636
3571.45288	-0.0079240138
3569.52445	-0.0079164896
3567.59602	-0.0079089152
3565.66759	-0.0078982897
3563.73916	-0.0078835469
3561.81073	-0.0078667179
3559.88230	-0.0078534475
3557.95387	-0.0078488206
3556.02544	-0.0078496849
3554.09701	-0.0078448039
3552.16858	-0.0078284321
3550.24015	-0.0078100758
3548.31172	-0.0077966005
3546.38329	-0.0077834805
3544.45486	-0.0077686822
3542.52643	-0.0077557145
3540.59799	-0.0077485945
3538.66956	-0.0077445260
3536.74113	-0.0077337441
3534.81270	-0.0077160452
3532.88427	-0.0077040931
3530.95584	-0.0077025671
3529.02741	-0.0077003292
3527.09898	-0.0076908176
3525.17055	-0.0076760165
3523.24212	-0.0076567889
3521.31369	-0.0076365434
3519.38526	-0.0076226559
3517.45683	-0.0076132445
3515.52840	-0.0076030190
3513.59997	-0.0075892829
3511.67154	-0.0075710695
3509.74311	-0.0075551956
3507.81468	-0.0075470544
3505.88625	-0.0075395750
3503.95782	-0.0075288899
3502.02939	-0.0075183571
3500.10096	-0.0075074681
3498.17253	-0.0074921008
3496.24410	-0.0074741375
3494.31567	-0.0074599395
3492.38724	-0.0074489978
3490.45881	-0.0074325087
3488.53038	-0.0074070613
3486.60195	-0.0073794234
3484.67352	-0.0073547363
3482.74509	-0.0073343241
3480.81666	-0.0073179831
3478.88823	-0.0072999620
3476.95980	-0.0072784270
3475.03137	-0.0072575016
3473.10293	-0.0072368300
3471.17450	-0.0072151390
3469.24607	-0.0071964008
3467.31764	-0.0071805129
3465.38921	-0.0071626385
3463.46078	-0.0071414532
3461.53235	-0.0071185352
3459.60392	-0.0070950557
3457.67549	-0.0070717279
3455.74706	-0.0070493156
3453.81863	-0.0070309262
3451.89020	-0.0070154909
3449.96177	-0.0069974572
3448.03334	-0.0069776904
3446.10491	-0.0069584320
3444.17648	-0.0069370838
3442.24805	-0.0069137984
3440.31962	-0.0068897982
3438.39119	-0.0068649813
3436.46276	-0.0068428642
3434.53433	-0.0068263011
3432.60590	-0.0068109604
3430.67747	-0.0067887893
3428.74904	-0.0067588189
3426.82061	-0.0067298142
3424.89218	-0.0067080981
3422.96375	-0.0066911220
3421.03532	-0.0066731763
3419.10689	-0.0066506928
3417.17846	-0.0066245366
3415.25003	-0.0065980218
3413.32160	-0.0065717604
3411.39317	-0.0065483535
3409.46474	-0.0065314220
3407.53631	-0.0065181111
3405.60788	-0.0065025045
3403.67944	-0.0064840922
3401.75101	-0.0064674644
3399.82258	-0.0064528761
3397.89415	-0.0064358390
3395.96572	-0.0064183930
3394.03729	-0.0064029871
3392.10886	-0.0063851317
3390.18043	-0.0063644187
3388.25200	-0.0063462555
3386.32357	-0.0063320203
3384.39514	-0.0063156928
3382.46671	-0.0062910984
3380.53828	-0.0062607871
3378.60985	-0.0062310863
3376.68142	-0.0062062317
3374.75299	-0.0061871945
3372.82456	-0.0061699427
3370.89613	-0.0061508017
3368.96770	-0.0061305878
3367.03927	-0.0061094542
3365.11084	-0.0060864813
3363.18241	-0.0060615167
3361.25398	-0.0060357843
3359.32555	-0.0060112253
3357.39712	-0.0059850304
3355.46869	-0.0059528081
3353.54026	-0.0059189494
3351.61183	-0.0058891228
3349.68340	-0.0058598560
3347.75497	-0.0058284928
3345.82654	-0.0057999375
3343.89811	-0.0057787877
3341.96968	-0.0057634609
3340.04125	-0.0057488494
3338.11282	-0.0057332153
3336.18439	-0.0057200328
3334.25595	-0.0057132374
3332.32752	-0.0057122153
3330.39909	-0.0057152812
3328.47066	-0.0057238648
3326.54223	-0.0057412367
3324.61380	-0.0057637165
3322.68537	-0.0057847649
3320.75694	-0.0058042798
3318.82851	-0.0058252239
3316.90008	-0.0058447877
3314.97165	-0.0058572511
3313.04322	-0.0058625122
3311.11479	-0.0058660363
3309.18636	-0.0058713998
3307.25793	-0.0058744643
3305.32950	-0.0058746175
3303.40107	-0.0058766603
3301.47264	-0.0058801337
3299.54421	-0.0058818702
3297.61578	-0.0058835046
3295.68735	-0.0058861095
3293.75892	-0.0058874376
3291.83049	-0.0058888164
3289.90206	-0.0058948942
3287.97363	-0.0059052622
3286.04520	-0.0059138425
3284.11677	-0.0059179282
3282.18834	-0.0059195114
3280.25991	-0.0059231371
3278.33148	-0.0059333001
3276.40305	-0.0059494376
3274.47462	-0.0059652175
3272.54619	-0.0059778304
3270.61776	-0.0059929453
3268.68933	-0.0060126549
3266.76089	-0.0060346611
3264.83246	-0.0060625379
3262.90403	-0.0060965386
3260.97560	-0.0061259936
3259.04717	-0.0061465139
3257.11874	-0.0061723413
3255.19031	-0.0062113865
3253.26188	-0.0062487945
3251.33345	-0.0062734936
3249.40502	-0.0062924763
3247.47659	-0.0063121212
3245.54816	-0.0063296733
3243.61973	-0.0063466639
3241.69130	-0.0063702348
3239.76287	-0.0063995183
3237.83444	-0.0064283404
3235.90601	-0.0064557837
3233.97758	-0.0064820522
3232.04915	-0.0065045445
3230.12072	-0.0065246392
3228.19229	-0.0065475884
3226.26386	-0.0065700775
3224.33543	-0.0065870075
3222.40700	-0.0066037327
3220.47857	-0.0066241287
3218.55014	-0.0066449312
3216.62171	-0.0066652740
3214.69328	-0.0066830670
3212.76485	-0.0066963728
3210.83642	-0.0067099333
3208.90799	-0.0067301202
3206.97956	-0.0067523960
3205.05113	-0.0067668213
3203.12270	-0.0067769643
3201.19427	-0.0067932745
3199.26584	-0.0068139671
3197.33740	-0.0068338946
3195.40897	-0.0068529034
3193.48054	-0.0068691089
3191.55211	-0.0068808296
3189.62368	-0.0068938746
3187.69525	-0.0069119637
3185.76682	-0.0069307657
3183.83839	-0.0069440133
3181.90996	-0.0069504329
3179.98153	-0.0069569033
3178.05310	-0.0069683669
3176.12467	-0.0069807977
3174.19624	-0.0069919042
3172.26781	-0.0070057102
3170.33938	-0.0070201270
3168.41095	-0.0070285322
3166.48252	-0.0070327604
3164.55409	-0.0070404522
3162.62566	-0.0070541035
3160.69723	-0.0070665833
3158.76880	-0.0070723388
3156.84037	-0.0070786551
3154.91194	-0.0070918980
3152.98351	-0.0071058534
3151.05508	-0.0071151229
3149.12665	-0.0071221003
3147.19822	-0.0071312166
3145.26979	-0.0071428791
3143.34136	-0.0071513331
3141.41293	-0.0071536247
3139.48450	-0.0071578515
3137.55607	-0.0071689533
3135.62764	-0.0071790363
3133.69921	-0.0071827024
3131.77078	-0.0071870820
3129.84235	-0.0071992013
3127.91391	-0.0072135096
3125.98548	-0.0072207912
3124.05705	-0.0072225733
3122.12862	-0.0072257812
3120.20019	-0.0072319419
3118.27176	-0.0072401906
3116.34333	-0.0072493046
3114.41490	-0.0072568906
3112.48647	-0.0072645275
3110.55804	-0.0072736409
3108.62961	-0.0072817360
3106.70118	-0.0072874380
3104.77275	-0.0072925799
3102.84432	-0.0073000635
3100.91589	-0.0073095327
3098.98746	-0.0073171179
3097.05903	-0.0073219030
3095.13060	-0.0073281135
3093.20217	-0.0073382435
3091.27374	-0.0073496462
3089.34531	-0.0073550926
3087.41688	-0.0073526492
3085.48845	-0.0073540239
3083.56002	-0.0073659350
3081.63159	-0.0073790671
3079.70316	-0.0073867529
3077.77473	-0.0073923520
3075.84630	-0.0074015642
3073.91787	-0.0074130669
3071.98944	-0.0074212612
3070.06101	-0.0074249255
3068.13258	-0.0074279793
3066.20415	-0.0074338829
3064.27572	-0.0074404478
3062.34729	-0.0074443156
3060.41885	-0.0074445191
3058.49042	-0.0074460460
3056.56199	-0.0074540358
3054.63356	-0.0074649774
3052.70513	-0.0074733230
3050.77670	-0.0074780560
3048.84827	-0.0074813636
3046.91984	-0.0074867066
3044.99141	-0.0074930675
3043.06298	-0.0074965279
3041.13455	-0.0075000897
3039.20612	-0.0075095035
3037.27769	-0.0075216647
3035.34926	-0.0075277197
3033.42083	-0.0075259898
3031.49240	-0.0075260405
3029.56397	-0.0075333677
3027.63554	-0.0075400840
3025.70711	-0.0075415089
3023.77868	-0.0075417124
3021.85025	-0.0075399824
3019.92182	-0.0075314343
3017.99339	-0.0075198328
3016.06496	-0.0075194766
3014.13653	-0.0075365226
3012.20810	-0.0075586042
3010.27967	-0.0075726467
3008.35124	-0.0075780903
3006.42281	-0.0075812954
3004.49438	-0.0075856200
3002.56595	-0.0075894864
3000.63752	-0.0075917249
2998.70909	-0.0075943703
2996.78066	-0.0076003228
2994.85223	-0.0076052574
2992.92380	-0.0076079536
2990.99536	-0.0076098363
2989.06693	-0.0076127867
2987.13850	-0.0076180776
2985.21007	-0.0076250974
2983.28164	-0.0076312022
2981.35321	-0.0076328809
2979.42478	-0.0076322192
2977.49635	-0.0076359836
2975.56792	-0.0076449369
2973.63949	-0.0076553137
2971.71106	-0.0076647243
2969.78263	-0.0076743378
2967.85420	-0.0076906146
2965.92577	-0.0077149770
2963.99734	-0.0077401525
2962.06891	-0.0077597830
2960.14048	-0.0077699539
2958.21205	-0.0077713267
2956.28362	-0.0077669532
2954.35519	-0.0077549005
2952.42676	-0.0077336933
2950.49833	-0.0077094841
2948.56990	-0.0076915808
2946.64147	-0.0076836459
2944.71304	-0.0076880711
2942.78461	-0.0077050594
2940.85618	-0.0077284551
2938.92775	-0.0077593252
2936.99932	-0.0078051942
2935.07089	-0.0078629050
2933.14246	-0.0079215225
2931.21403	-0.0079727117
2929.28560	-0.0080132214
2927.35717	-0.0080423439
2925.42874	-0.0080561163
2923.50031	-0.0080444785
2921.57187	-0.0080007184
2919.64344	-0.0079282839
2917.71501	-0.0078368215
2915.78658	-0.0077414745
2913.85815	-0.0076534320
2911.92972	-0.0075739184
2910.00129	-0.0075047715
2908.07286	-0.0074479799
2906.14443	-0.0073996303
2904.21600	-0.0073564164
2902.28757	-0.0073161507
2900.35914	-0.0072777141
2898.43071	-0.0072426856
2896.50228	-0.0072110146
2894.57385	-0.0071828552
2892.64542	-0.0071606524
2890.71699	-0.0071463422
2888.78856	-0.0071381941
2886.86013	-0.0071331011
2884.93170	-0.0071299942
2883.00327	-0.0071296380
2881.07484	-0.0071317260
2879.14641	-0.0071366662
2877.21798	-0.0071466989
2875.28955	-0.0071608564
2873.36112	-0.0071735363
2871.43269	-0.0071805129
2869.50426	-0.0071857581
2867.57583	-0.0071970117
2865.64740	-0.0072183469
2863.71897	-0.0072513409
2861.79054	-0.0072946674
2859.86211	-0.0073433849
2857.93368	-0.0073934207
2856.00525	-0.0074394299
2854.07681	-0.0074678273
2852.14838	-0.0074667078
2850.21995	-0.0074362238
2848.29152	-0.0073894504
2846.36309	-0.0073422650
2844.43466	-0.0073010819
2842.50623	-0.0072692628
2840.57780	-0.0072495081
2838.64937	-0.0072380011
2836.72094	-0.0072304145
2834.79251	-0.0072280215
2832.86408	-0.0072299563
2830.93565	-0.0072304653
2829.00722	-0.0072286325
2827.07879	-0.0072284797
2825.15036	-0.0072311275
2823.22193	-0.0072355061
2821.29350	-0.0072398852
2819.36507	-0.0072416160
2817.43664	-0.0072423290
2815.50821	-0.0072454349
2813.57978	-0.0072484389
2811.65135	-0.0072494061
2809.72292	-0.0072520538
2807.79449	-0.0072561270
2805.86606	-0.0072559742
2803.93763	-0.0072552613
2802.00920	-0.0072599966
2800.08077	-0.0072659026
2798.15234	-0.0072688553
2796.22391	-0.0072699245
2794.29548	-0.0072682952
2792.36705	-0.0072660553
2790.43862	-0.0072678882
2788.51019	-0.0072722663
2786.58176	-0.0072748628
2784.65332	-0.0072750156
2782.72489	-0.0072759832
2780.79646	-0.0072780196
2778.86803	-0.0072769504
2776.93960	-0.0072734375
2775.01117	-0.0072727758
2773.08274	-0.0072763902
2771.15431	-0.0072813798
2769.22588	-0.0072833141
2767.29745	-0.0072805141
2765.36902	-0.0072776121
2763.44059	-0.0072776121
2761.51216	-0.0072800559
2759.58373	-0.0072826524
2757.65530	-0.0072838743
2755.72687	-0.0072856559
2753.79844	-0.0072902380
2751.87001	-0.0072948709
2749.94158	-0.0072958381
2748.01315	-0.0072939545
2746.08472	-0.0072920201
2744.15629	-0.0072909510
2742.22786	-0.0072893729
2740.29943	-0.0072887619
2738.37100	-0.0072906455
2736.44257	-0.0072929873
2734.51414	-0.0072953799
2732.58571	-0.0072980784
2730.65728	-0.0072982819
2728.72885	-0.0072955326
2726.80042	-0.0072931908
2724.87199	-0.0072917654
2722.94356	-0.0072908998
2721.01513	-0.0072902380
2719.08670	-0.0072898818
2717.15827	-0.0072924271
2715.22983	-0.0072976709
2713.30140	-0.0073003690
2711.37297	-0.0072978744
2709.44454	-0.0072945147
2707.51611	-0.0072956346
2705.58768	-0.0072999620
2703.65925	-0.0073012346
2701.73082	-0.0072990456
2699.80239	-0.0072992491
2697.87396	-0.0073023546
2695.94553	-0.0073052566
2694.01710	-0.0073063252
2692.08867	-0.0073064272
2690.16024	-0.0073079034
2688.23181	-0.0073101437
2686.30338	-0.0073124343
2684.37495	-0.0073165577
2682.44652	-0.0073201722
2680.51809	-0.0073213433
2678.58966	-0.0073216995
2676.66123	-0.0073212921
2674.73280	-0.0073210378
2672.80437	-0.0073239901
2670.87594	-0.0073276553
2668.94751	-0.0073268409
2667.01908	-0.0073229210
2665.09065	-0.0073193577
2663.16222	-0.0073171686
2661.23379	-0.0073176268
2659.30536	-0.0073228702
2657.37693	-0.0073320335
2655.44850	-0.0073421635
2653.52007	-0.0073531587
2651.59164	-0.0073687853
2649.66321	-0.0073909266
2647.73477	-0.0074145938
2645.80634	-0.0074345442
2643.87791	-0.0074523566
2641.94948	-0.0074715931
2640.02105	-0.0074919988
2638.09262	-0.0075146430
2636.16419	-0.0075379978
2634.23576	-0.0075623184
2632.30733	-0.0075896392
2630.37890	-0.0076169074
2628.45047	-0.0076421392
2626.52204	-0.0076639103
2624.59361	-0.0076811537
2622.66518	-0.0076997695
2620.73675	-0.0077223009
2618.80832	-0.0077424916
2616.87989	-0.0077577485
2614.95146	-0.0077749374
2613.02303	-0.0077987867
2611.09460	-0.0078241602
2609.16617	-0.0078455666
2607.23774	-0.0078603625
2605.30931	-0.0078696664
2603.38088	-0.0078820726
2601.45245	-0.0078984424
2599.52402	-0.0079141511
2597.59559	-0.0079343338
2595.66716	-0.0079582250
2593.73873	-0.0079720514
2591.81030	-0.0079759648
2589.88187	-0.0079825725
2587.95344	-0.0079974150
2586.02501	-0.0080165761
2584.09658	-0.0080385320
2582.16815	-0.0080593685
2580.23972	-0.0080702947
2578.31128	-0.0080724293
2576.38285	-0.0080770534
2574.45442	-0.0080862008
2572.52599	-0.0080937725
2570.59756	-0.0081015471
2568.66913	-0.0081138443
2566.74070	-0.0081210602
2564.81227	-0.0081230924
2562.88384	-0.0081310188
2560.95541	-0.0081379805
2559.02698	-0.0081385896
2557.09855	-0.0081402157
2555.17012	-0.0081449924
2553.24169	-0.0081518516
2551.31326	-0.0081546456
2549.38483	-0.0081546456
2547.45640	-0.0081644515
2545.52797	-0.0081757307
2543.59954	-0.0081733428
2541.67111	-0.0081717176
2539.74268	-0.0081824884
2537.81425	-0.0081907185
2535.88582	-0.0081921415
2533.95739	-0.0081936149
2532.02896	-0.0081885336
2530.10053	-0.0081810150
2528.17210	-0.0081868572
2526.24367	-0.0082049435
2524.31524	-0.0082190158
2522.38681	-0.0082132248
2520.45838	-0.0081955446
2518.52995	-0.0081879748
2516.60152	-0.0081924964
2514.67309	-0.0081979837
2512.74466	-0.0081976792
2510.81623	-0.0081967134
2508.88779	-0.0082069254
2506.95936	-0.0082221655
2505.03093	-0.0082272459
2503.10250	-0.0082231304
2501.17407	-0.0082138851
2499.24564	-0.0082001174
2497.31721	-0.0081937667
2495.38878	-0.0082059596
2493.46035	-0.0082280580
2491.53192	-0.0082393363
2489.60349	-0.0082280580
2487.67506	-0.0082083475
2485.74663	-0.0082000159
2483.81820	-0.0082002701
2481.88977	-0.0081981868
2479.96134	-0.0081966119
2478.03291	-0.0081950882
2476.10448	-0.0081862984
2474.17605	-0.0081779668
2472.24762	-0.0081847236
2470.31919	-0.0082010822
2468.39076	-0.0082067214
2466.46233	-0.0081948340
2464.53390	-0.0081818784
2462.60547	-0.0081763407
2460.67704	-0.0081672464
2458.74861	-0.0081559671
2456.82018	-0.0081556113
2454.89175	-0.0081649087
2452.96332	-0.0081750201
2451.03489	-0.0081784241
2449.10646	-0.0081732925
2447.17803	-0.0081700915
2445.24960	-0.0081801508
2443.32117	-0.0081915818
2441.39273	-0.0081873145
2439.46430	-0.0081801508
2437.53587	-0.0081853336
2435.60744	-0.0081850793
2433.67901	-0.0081712604
2431.75058	-0.0081647057
2429.82215	-0.0081663318
2427.89372	-0.0081605399
2425.96529	-0.0081536807
2424.03686	-0.0081586093
2422.10843	-0.0081687700
2420.18000	-0.0081718694
2418.25157	-0.0081660273
2416.32314	-0.0081560174
2414.39471	-0.0081473291
2412.46628	-0.0081376750
2410.53785	-0.0081276651
2408.60942	-0.0081258873
2406.68099	-0.0081263948
2404.75256	-0.0081192814
2402.82413	-0.0081104394
2400.89570	-0.0081062727
2398.96727	-0.0081099821
2397.03884	-0.0080905715
2395.11041	-0.0080620619
2393.18198	-0.0080392435
2391.25355	-0.0080278590
2389.32512	-0.0080217598
2387.39669	-0.0080114938
2385.46826	-0.0079961950
2383.53983	-0.0079807937
2381.61140	-0.0079658497
2379.68297	-0.0079483129
2377.75454	-0.0079269111
2375.82611	-0.0079020523
2373.89768	-0.0078749545
2371.96924	-0.0078471433
2370.04081	-0.0078194318
2368.11238	-0.0077924305
2366.18395	-0.0077645122
2364.25552	-0.0077340496
2362.32709	-0.0077049574
2360.39866	-0.0076844599
2358.47023	-0.0076780510
2356.54180	-0.0076809502
2354.61337	-0.0076874099
2352.68494	-0.0076969215
2350.75651	-0.0077075516
2348.82808	-0.0077110101
2346.89965	-0.0076996172
2344.97122	-0.0076793227
2343.04279	-0.0076640630
2341.11436	-0.0076561277
2339.18593	-0.0076510408
2337.25750	-0.0076539912
2335.32907	-0.0076669622
2333.40064	-0.0076818657
2331.47221	-0.0076999729
2329.54378	-0.0077238269
2327.61535	-0.0077340496
2325.68692	-0.0077143670
2323.75849	-0.0076918858
2321.83006	-0.0077091283
2319.90163	-0.0077614100
2317.97320	-0.0078148050
2316.04477	-0.0078602610
2314.11634	-0.0079027638
2312.18791	-0.0079420097
2310.25948	-0.0079811495
2308.33105	-0.0080244029
2306.40262	-0.0080667883
2304.47419	-0.0081066284
2302.54575	-0.0081554083
2300.61732	-0.0082112942
2298.68889	-0.0082511716
2296.76046	-0.0082681384
2294.83203	-0.0082764681
2292.90360	-0.0082891164
2290.97517	-0.0083155278
2289.04674	-0.0083510289
2287.11831	-0.0083800266
2285.18988	-0.0084008975
2283.26145	-0.0084220218
2281.33302	-0.0084528420
2279.40459	-0.0085054915
2277.47616	-0.0085749878
2275.54773	-0.0086390413
2273.61930	-0.0086956779
2271.69087	-0.0087552993
2269.76244	-0.0088103479
2267.83401	-0.0088489531
2265.90558	-0.0088757360
2263.97715	-0.0089078443
2262.04872	-0.0089434488
2260.12029	-0.0089759566
2258.19186	-0.0090430956
2256.26343	-0.0091574201
2254.33500	-0.0092552444
2252.40657	-0.0092931511
2250.47814	-0.0092880838
2248.54971	-0.0092457673
2246.62128	-0.0092482502
2244.69285	-0.0092666978
2242.76442	-0.0093445843
2240.83599	-0.0094705820
2238.90756	-0.0095588146
2236.97913	-0.0096036326
2235.05069	-0.0096703200
2233.12226	-0.0097466158
2231.19383	-0.0098082703
2229.26540	-0.0098803407
2227.33697	-0.0099567520
2225.40854	-0.0100317318
2223.48011	-0.0101039177
2221.55168	-0.0101314327
2219.62325	-0.0101220254
2217.69482	-0.0101193953
2215.76639	-0.0101667354
2213.83796	-0.0103186835
2211.90953	-0.0105045903
2209.98110	-0.0106071634
2208.05267	-0.0106648058
2206.12424	-0.0107445633
2204.19581	-0.0108187515
2202.26738	-0.0108138537
2200.33895	-0.0107272398
2198.41052	-0.0106586935
2196.48209	-0.0106346970
2194.55366	-0.0106081236
2192.62523	-0.0105999894
2190.69680	-0.0106444983
2188.76837	-0.0107429475
2186.83994	-0.0108994404
2184.91151	-0.0110461861
2182.98308	-0.0111080604
2181.05465	-0.0111437878
2179.12622	-0.0111956578
2177.19779	-0.0111934384
2175.26936	-0.0110916588
2173.34093	-0.0109457867
2171.41250	-0.0109339226
2169.48407	-0.0111774439
2167.55564	-0.0115590300
2165.62720	-0.0119290482
2163.69877	-0.0122509394
2161.77034	-0.0126247453
2159.84191	-0.0131565230
2157.91348	-0.0135312565
2155.98505	-0.0133859999
2154.05662	-0.0128232390
2152.12819	-0.0122635225
2150.19976	-0.0119790118
2148.27133	-0.0117631005
2146.34290	-0.0114543615
2144.41447	-0.0111846589
2142.48604	-0.0110422494
2140.55761	-0.0109733492
2138.62918	-0.0108775785
2136.70075	-0.0107805738
2134.77232	-0.0107520381
2132.84389	-0.0107128443
2130.91546	-0.0105835181
2128.98703	-0.0104105351
2127.05860	-0.0102551291
2125.13017	-0.0101411436
2123.20174	-0.0100834826
2121.27331	-0.0100531811
2119.34488	-0.0100014787
2117.41645	-0.0099361576
2115.48802	-0.0099141458
2113.55959	-0.0099386368
2111.63116	-0.0099505279
2109.70273	-0.0099421283
2107.77430	-0.0099452659
2105.84587	-0.0099687940
2103.91744	-0.0100072967
2101.98901	-0.0100535359
2100.06058	-0.0100914240
2098.13215	-0.0101339109
2096.20371	-0.0101679489
2094.27528	-0.0101467073
2092.34685	-0.0100375498
2090.41842	-0.0099097425
2088.48999	-0.0098676886
2086.56156	-0.0099080727
2084.63313	-0.0099507300
2082.70470	-0.0100101298
2080.77627	-0.0101236440
2078.84784	-0.0102844052
2076.91941	-0.0104664350
2074.99098	-0.0106520755
2073.06255	-0.0107947644
2071.13412	-0.0108867679
2069.20569	-0.0109760752
2067.27726	-0.0110499719
2065.34883	-0.0110825244
2063.42040	-0.0111107854
2061.49197	-0.0111675039
2059.56354	-0.0112232557
2057.63511	-0.0112222973
2055.70668	-0.0111773927
2053.77825	-0.0111964652
2051.84982	-0.0114279380
2049.92139	-0.0119420439
2047.99296	-0.0125718378
2046.06453	-0.0130172716
2044.13610	-0.0131815858
2042.20767	-0.0131772161
2040.27924	-0.0132235205
2038.35081	-0.0134541672
2036.42238	-0.0136996908
2034.49395	-0.0138790915
2032.56552	-0.0141372541
2030.63709	-0.0143829426
2028.70865	-0.0144910635
2026.78022	-0.0145130949
2024.85179	-0.0144484490
2022.92336	-0.0143088093
2020.99493	-0.0141489804
2019.06650	-0.0140180672
2017.13807	-0.0139636751
2015.20964	-0.0139586115
2013.28121	-0.0139147416
2011.35278	-0.0139058167
2009.42435	-0.0140532553
2007.49592	-0.0141144516
2005.56749	-0.0138266375
2003.63906	-0.0133667728
2001.71063	-0.0129772760
1999.78220	-0.0127182212
1997.85377	-0.0125606218
1995.92534	-0.0124028148
1993.99691	-0.0121889263
1992.06848	-0.0120427171
1990.14005	-0.0120875817
1988.21162	-0.0122424336
1986.28319	-0.0123797199
1984.35476	-0.0125480480
1982.42633	-0.0129425032
1980.49790	-0.0135663832
1978.56947	-0.0140704466
1976.64104	-0.0141653670
1974.71261	-0.0139860846
1972.78418	-0.0137876198
1970.85575	-0.0136407940
1968.92732	-0.0134256566
1966.99889	-0.0130763026
1965.07046	-0.0126982108
1963.14203	-0.0123913931
1961.21360	-0.0121305287
1959.28516	-0.0118378205
1957.35673	-0.0115348315
1955.42830	-0.0113028605
1953.49987	-0.0111278417
1951.57144	-0.0109461900
1949.64301	-0.0107557252
1947.71458	-0.0106114075
1945.78615	-0.0105381943
1943.85772	-0.0104792714
1941.92929	-0.0103810653
1940.00086	-0.0102710063
1938.07243	-0.0101798838
1936.14400	-0.0100942058
1934.21557	-0.0100076506
1932.28714	-0.0099328682
1930.35871	-0.0098757865
1928.43028	-0.0098125720
1926.50185	-0.0097125955
1924.57342	-0.0095850481
1922.64499	-0.0094594881
1920.71656	-0.0093797483
1918.78813	-0.0093643954
1916.85970	-0.0093615586
1914.93127	-0.0093423044
1913.00284	-0.0093313595
1911.07441	-0.0093267485
1909.14598	-0.0093062762
1907.21755	-0.0092744008
1905.28912	-0.0092427768
1903.36069	-0.0092087677
1901.43226	-0.0091739958
1899.50383	-0.0091473320
1897.57540	-0.0091258883
1895.64697	-0.0090957750
1893.71854	-0.0090496363
1891.79011	-0.0090049123
1889.86167	-0.0089815855
1887.93324	-0.0089718485
1886.00481	-0.0089603877
1884.07638	-0.0089401519
1882.14795	-0.0089126620
1880.21952	-0.0088969897
1878.29109	-0.0088920183
1876.36266	-0.0088726422
1874.43423	-0.0088393148
1872.50580	-0.0088082673
1870.57737	-0.0087821903
1868.64894	-0.0087626055
1866.72051	-0.0087524578
1864.79208	-0.0087432237
1862.86365	-0.0087261237
1860.93522	-0.0087063340
1859.00679	-0.0086893849
1857.07836	-0.0086705070
1855.14993	-0.0086443704
1853.22150	-0.0086151874
1851.29307	-0.0085979812
1849.36464	-0.0085911285
1847.43621	-0.0085762059
1845.50778	-0.0085499119
1843.57935	-0.0085196048
1841.65092	-0.0084931552
1839.72249	-0.0084761474
1837.79406	-0.0084623368
1835.86563	-0.0084439572
1833.93720	-0.0084226308
1832.00877	-0.0084022684
1830.08034	-0.0083897766
1828.15191	-0.0083919093
1826.22348	-0.0084034363
1824.29505	-0.0084148115
1822.36661	-0.0084287245
1820.43818	-0.0084448708
1818.50975	-0.0084335478
1816.58132	-0.0083646392
1814.65289	-0.0082595022
1812.72446	-0.0081681609
1810.79603	-0.0081112524
1808.86760	-0.0080796452
1806.93917	-0.0080621634
1805.01074	-0.0080525083
1803.08231	-0.0080450373
1801.15388	-0.0080372104
1799.22545	-0.0080315694
1797.29702	-0.0080315694
1795.36859	-0.0080349231
1793.44016	-0.0080333985
1791.51173	-0.0080246571
1789.58330	-0.0080153057
1787.65487	-0.0080072749
1785.72644	-0.0079968050
1783.79801	-0.0079870969
1781.86958	-0.0079837926
1779.94115	-0.0079871472
1778.01272	-0.0079888245
1776.08429	-0.0079763206
1774.15586	-0.0079494314
1772.22743	-0.0079223868
1770.29900	-0.0079038823
1768.37057	-0.0078917826
1766.44214	-0.0078845127
1764.51371	-0.0078823771
1762.58528	-0.0078826826
1760.65685	-0.0078824786
1758.72842	-0.0078822244
1756.79999	-0.0078877667
1754.87156	-0.0079035768
1752.94312	-0.0079237595
1751.01469	-0.0079395697
1749.08626	-0.0079505490
1747.15783	-0.0079599023
1745.22940	-0.0079679843
1743.30097	-0.0079733729
1741.37254	-0.0079712886
1739.44411	-0.0079586320
1737.51568	-0.0079412470
1735.58725	-0.0079248268
1733.65882	-0.0079056108
1731.73039	-0.0078814114
1729.80196	-0.0078564985
1727.87353	-0.0078337202
1725.94510	-0.0078142453
1724.01667	-0.0077996007
1722.08824	-0.0077880574
1720.15981	-0.0077782939
1718.23138	-0.0077718352
1716.30295	-0.0077674617
1714.37452	-0.0077635967
1712.44609	-0.0077593252
1710.51766	-0.0077517987
1708.58923	-0.0077396436
1706.66080	-0.0077240812
1704.73237	-0.0077044996
1702.80394	-0.0076815607
1700.87551	-0.0076600956
1698.94708	-0.0076425970
1697.01865	-0.0076268273
1695.09022	-0.0076120235
1693.16179	-0.0075995089
1691.23336	-0.0075880112
1689.30493	-0.0075758519
1687.37650	-0.0075631323
1685.44807	-0.0075488864
1683.51963	-0.0075324518
1681.59120	-0.0075163729
1679.66277	-0.0075024813
1677.73434	-0.0074875718
1675.80591	-0.0074694557
1673.87748	-0.0074510844
1671.94905	-0.0074351551
1670.02062	-0.0074194288
1668.09219	-0.0074003935
1666.16376	-0.0073778457
1664.23533	-0.0073561110
1662.30690	-0.0073372764
1660.37847	-0.0073191542
1658.45004	-0.0073008784
1656.52161	-0.0072824997
1654.59318	-0.0072633568
1652.66475	-0.0072431439
1650.73632	-0.0072216569
1648.80789	-0.0071995575
1646.87946	-0.0071777632
1644.95103	-0.0071568331
1643.02260	-0.0071393144
1641.09417	-0.0071281102
1639.16574	-0.0071226605
1637.23731	-0.0071185352
1635.30888	-0.0071127289
1633.38045	-0.0071085528
1631.45202	-0.0071099787
1629.52359	-0.0071151736
1627.59516	-0.0071200631
1625.66673	-0.0071233734
1623.73830	-0.0071288231
1621.80987	-0.0071379393
1619.88144	-0.0071485322
1617.95301	-0.0071589719
1616.02457	-0.0071678329
1614.09614	-0.0071739946
1612.16771	-0.0071804109
1610.23928	-0.0071882531
1608.31085	-0.0071952804
1606.38242	-0.0072009834
1604.45399	-0.0072055152
1602.52556	-0.0072088763
1600.59713	-0.0072133569
1598.66870	-0.0072204857
1596.74027	-0.0072303638
1594.81184	-0.0072411578
1592.88341	-0.0072509847
1590.95498	-0.0072607603
1589.02655	-0.0072720121
1587.09812	-0.0072811758
1585.16969	-0.0072851470
1583.24126	-0.0072837723
1581.31283	-0.0072786305
1579.38440	-0.0072736409
1577.45597	-0.0072718081
1575.52754	-0.0072718593
1573.59911	-0.0072716046
1571.67068	-0.0072714519
1569.74225	-0.0072728265
1567.81382	-0.0072773579
1565.88539	-0.0072835688
1563.95696	-0.0072887107
1562.02853	-0.0072912565
1560.10010	-0.0072914599
1558.17167	-0.0072904928
1556.24324	-0.0072900346
1554.31481	-0.0072895256
1552.38638	-0.0072887619
1550.45795	-0.0072893216
1548.52952	-0.0072920709
1546.60108	-0.0072950236
1544.67265	-0.0072968053
1542.74422	-0.0072997580
1540.81579	-0.0073065292
1538.88736	-0.0073122308
1536.95893	-0.0073118745
1535.03050	-0.0073100417
1533.10207	-0.0073097870
1531.17364	-0.0073090238
1529.24521	-0.0073091253
1527.31678	-0.0073115691
1525.38835	-0.0073150815
1523.45992	-0.0073183905
1521.53149	-0.0073213433
1519.60306	-0.0073233284
1517.67463	-0.0073243463
1515.74620	-0.0073246011
1513.81777	-0.0073264339
1511.88934	-0.0073305061
1509.96091	-0.0073335604
1508.03248	-0.0073344260
1506.10405	-0.0073332549
1504.17562	-0.0073300479
1502.24719	-0.0073270956
1500.31876	-0.0073269936
1498.39033	-0.0073275538
1496.46190	-0.0073240413
1494.53347	-0.0073168632
1492.60504	-0.0073086163
1490.67661	-0.0072960928
1488.74818	-0.0072749648
1486.81975	-0.0072459439
1484.89132	-0.0072100474
1482.96289	-0.0071687493
1481.03446	-0.0071305037
1479.10603	-0.0071046310
1477.17759	-0.0070907264
1475.24916	-0.0070811510
1473.32073	-0.0070730522
1471.39230	-0.0070666340
1469.46387	-0.0070545110
1467.53544	-0.0070272586
1465.60701	-0.0069857906
1463.67858	-0.0069348416
1461.75015	-0.0068760393
1459.82172	-0.0068148850
1457.89329	-0.0067572896
1455.96486	-0.0067023886
1454.03643	-0.0066499789
1452.10800	-0.0066060275
1450.17957	-0.0065738512
1448.25114	-0.0065500364
1446.32271	-0.0065282090
1444.39428	-0.0065054628
1442.46585	-0.0064799609
1440.53742	-0.0064458880
1438.60899	-0.0063956920
1436.68056	-0.0063244691
1434.75213	-0.0062333317
1432.82370	-0.0061341100
1430.89527	-0.0060457406
1428.96684	-0.0059830388
1427.03841	-0.0059540849
1425.10998	-0.0059609790
1423.18155	-0.0060015237
1421.25312	-0.0060697361
1419.32469	-0.0061542727
1417.39626	-0.0062408848
1415.46783	-0.0063183461
1413.53940	-0.0063811014
1411.61097	-0.0064280345
1409.68253	-0.0064595072
1407.75410	-0.0064796549
1405.82567	-0.0064964350
1403.89724	-0.0065134191
1401.96881	-0.0065289740
1400.04038	-0.0065426924
1398.11195	-0.0065537589
1396.18352	-0.0065605924
1394.25509	-0.0065629892
1392.32666	-0.0065602865
1390.39823	-0.0065487614
1388.46980	-0.0065226499
1386.54137	-0.0064755231
1384.61294	-0.0064029871
1382.68451	-0.0063029365
1380.75608	-0.0061782622
1378.82765	-0.0060400222
1376.89922	-0.0058975499
1374.97079	-0.0057543158
1373.04236	-0.0056204894
1371.11393	-0.0055188271
1369.18550	-0.0054670414
1367.25707	-0.0054574809
1365.32864	-0.0054613152
1363.40021	-0.0054603438
1361.47178	-0.0054602418
1359.54335	-0.0054713357
1357.61492	-0.0054912735
1355.68649	-0.0055153510
1353.75806	-0.0055502127
1351.82963	-0.0055982065
1349.90120	-0.0056385295
1347.97277	-0.0056458372
1346.04434	-0.0056110858
1344.11591	-0.0055380985
1342.18748	-0.0054406091
1340.25904	-0.0053392630
1338.33061	-0.0052501177
1336.40218	-0.0051834644
1334.47375	-0.0051484713
1332.54532	-0.0051506711
1330.61689	-0.0051804972
1328.68846	-0.0052115493
1326.76003	-0.0052180970
1324.83160	-0.0051832600
1322.90317	-0.0051001208
1320.97474	-0.0049779667
1319.04631	-0.0048420574
1317.11788	-0.0047271540
1315.18945	-0.0046678982
1313.26102	-0.0046827514
1311.33259	-0.0047641783
1309.40416	-0.0048890547
1307.47573	-0.0050339047
1305.54730	-0.0051848460
1303.61887	-0.0053341999
1301.69044	-0.0054744543
1299.76201	-0.0055991262
1297.83358	-0.0057022003
1295.90515	-0.0057771020
1293.97672	-0.0058258879
1292.04829	-0.0058582216
1290.11986	-0.0058787544
1288.19143	-0.0058818189
1286.26300	-0.0058603156
1284.33457	-0.0058151092
1282.40614	-0.0057666288
1280.47771	-0.0057472656
1278.54928	-0.0057664244
1276.62085	-0.0058039729
1274.69242	-0.0058439192
1272.76399	-0.0058873352
1270.83555	-0.0059347302
1268.90712	-0.0059819156
1266.97869	-0.0060265427
1265.05026	-0.0060645286
1263.12183	-0.0060887276
1261.19340	-0.0061004185
1259.26497	-0.0061078714
1257.33654	-0.0061136400
1255.40811	-0.0061155288
1253.47968	-0.0061117513
1251.55125	-0.0061017969
1249.62282	-0.0060889320
1247.69439	-0.0060831122
1245.76596	-0.0060927095
1243.83753	-0.0061148140
1241.90910	-0.0061391634
1239.98067	-0.0061560590
1238.05224	-0.0061603975
1236.12381	-0.0061610104
1234.19538	-0.0061759655
1232.26695	-0.0062145507
1230.33852	-0.0062712482
1228.41009	-0.0063382452
1226.48166	-0.0064144139
1224.55323	-0.0064982204
1222.62480	-0.0065778289
1220.69637	-0.0066409032
1218.76794	-0.0066872984
1216.83951	-0.0067197210
1214.91108	-0.0067295595
1212.98265	-0.0066988198
1211.05422	-0.0066145426
1209.12579	-0.0064879176
1207.19736	-0.0063591124
1205.26893	-0.0062678293
1203.34049	-0.0062249620
1201.41206	-0.0062257787
1199.48363	-0.0062676254
1197.55520	-0.0063386024
1195.62677	-0.0064245146
1193.69834	-0.0065156119
1191.76991	-0.0065998575
1189.84148	-0.0066613485
1187.91305	-0.0066912239
1185.98462	-0.0066867378
1184.05619	-0.0066452371
1182.12776	-0.0065614083
1180.19933	-0.0064327274
1178.27090	-0.0062574702
1176.34247	-0.0060189865
1174.41404	-0.0056897327
1172.48561	-0.0052490947
1170.55718	-0.0046913559
1168.62875	-0.0040441221
1166.70032	-0.0033852886
1164.77189	-0.0028212916
1162.84346	-0.0024440968
1160.91503	-0.0022943115
1158.98660	-0.0023465285
1157.05817	-0.0025335108
1155.12974	-0.0027888853
1153.20131	-0.0030698141
1151.27288	-0.0033565206
1149.34445	-0.0036342589
1147.41602	-0.0038961703
1145.48759	-0.0041519757
1143.55916	-0.0043988670
1141.63073	-0.0046042292
1139.70230	-0.0047275638
1137.77387	-0.0047382154
1135.84544	-0.0046306099
1133.91700	-0.0044317171
1131.98857	-0.0041724360
1130.06014	-0.0038532221
1128.13171	-0.0034595632
1126.20328	-0.0030129023
1124.27485	-0.0025713916
1122.34642	-0.0021666263
1120.41799	-0.0017671554
1118.48956	-0.0013070845
1116.56113	-0.0007420859
1114.63270	-0.0001147115
1112.70427	0.0004377193
1110.77584	0.0007957643
1108.84741	0.0009574635
1106.91898	0.0009955238
1104.99055	0.0009547395
1103.06212	0.0008278970
1101.13369	0.0006091096
1099.20526	0.0003261044
1097.27683	0.0000216412
1095.34840	-0.0002653019
1093.41997	-0.0005026216
1091.49154	-0.0006675518
1089.56311	-0.0007525258
1087.63468	-0.0007656529
1085.70625	-0.0007110746
1083.77782	-0.0005633273
1081.84939	-0.0002840315
1079.92096	0.0001325046
1077.99253	0.0006412285
1076.06410	0.0011704048
1074.13567	0.0016812303
1072.20724	0.0022043390
1070.27881	0.0028002665
1068.35038	0.0035063145
1066.42195	0.0043313075
1064.49351	0.0052545159
1062.56508	0.0061951298
1060.63665	0.0070046000
1058.70822	0.0075502577
1056.77979	0.0078084921
1054.85136	0.0078305788
1052.92293	0.0076553142
1050.99450	0.0073082610
1049.06607	0.0068428167
1047.13764	0.0063466905
1045.20921	0.0059326305
1043.28078	0.0057253418
1041.35235	0.0058251303
1039.42392	0.0062516145
1037.49549	0.0069016735
1035.56706	0.0075759138
1033.63863	0.0080747921
1031.71020	0.0082986932
1029.78177	0.0082679549
1027.85334	0.0080612106
1025.92491	0.0077612917
1023.99648	0.0074390648
1022.06805	0.0071391542
1020.13962	0.0068800813
1018.21119	0.0066751265
1016.28276	0.0065238718
1014.35433	0.0063932911
1012.42590	0.0062395870
1010.49747	0.0060551981
1008.56904	0.0058785756
1006.64061	0.0057503134
1004.71218	0.0056812000
1002.78375	0.0056559970
1000.85532	0.0056352271
998.92689	0.0055736834
996.99845	0.0054583820
995.07002	0.0053097252
993.14159	0.0051545179
991.21316	0.0050185346
989.28473	0.0049251360
987.35630	0.0048739025
985.42787	0.0048064729
983.49944	0.0046181916
981.57101	0.0042452714
979.64258	0.0037297783
977.71415	0.0031727036
975.78572	0.0026537147
973.85729	0.0022046512
971.92886	0.0018282341
970.00043	0.0015138063
968.07200	0.0012401796
966.14357	0.0009846268
964.21514	0.0007341509
962.28671	0.0004805281
960.35828	0.0002234793
958.42985	-0.0000293537
956.50142	-0.0002748220
954.57299	-0.0005121366
952.64456	-0.0007342816
950.71613	-0.0009360625
948.78770	-0.0011176628
946.85927	-0.0012821015
944.93084	-0.0014329585
943.00241	-0.0015722599
941.07398	-0.0016997590
939.14555	-0.0018151051
937.21712	-0.0019222252
935.28869	-0.0020253512
933.36026	-0.0021235582
931.43183	-0.0022143775
929.50340	-0.0023002338
927.57496	-0.0023865367
925.64653	-0.0024725650
923.71810	-0.0025556425
921.78967	-0.0026336613
919.86124	-0.0027004499
917.93281	-0.0027509718
916.00438	-0.0027861074
914.07595	-0.0028053459
912.14752	-0.0028064775
910.21909	-0.0027892967
908.29066	-0.0027559621
906.36223	-0.0027084248
904.43380	-0.0026471948
902.50537	-0.0025798320
900.57694	-0.0025200767
898.64851	-0.0024717413
