3997.63597	-0.0088826353
3995.70754	-0.0089124087
3993.77911	-0.0089176837
3991.85068	-0.0089155026
3989.92225	-0.0089112930
3987.99382	-0.0089114960
3986.06539	-0.0089129163
3984.13696	-0.0089076413
3982.20853	-0.0088993730
3980.28010	-0.0088962289
3978.35167	-0.0088981055
3976.42324	-0.0088994745
3974.49481	-0.0088988664
3972.56638	-0.0089002866
3970.63795	-0.0089040902
3968.70952	-0.0089062713
3966.78109	-0.0089030759
3964.85266	-0.0088980040
3962.92423	-0.0088974964
3960.99580	-0.0089000324
3959.06737	-0.0089020105
3957.13894	-0.0089041917
3955.21051	-0.0089055104
3953.28207	-0.0089032790
3951.35364	-0.0088983588
3949.42521	-0.0088971928
3947.49678	-0.0089000836
3945.56835	-0.0089029241
3943.63992	-0.0089072352
3941.71149	-0.0089077931
3939.78306	-0.0089036338
3937.85463	-0.0089016557
3935.92620	-0.0089034308
3933.99777	-0.0089103803
3932.06934	-0.0089150462
3930.14091	-0.0089113945
3928.21248	-0.0089082494
3926.28405	-0.0089129163
3924.35562	-0.0089189010
3922.42719	-0.0089146914
3920.49876	-0.0089056119
3918.57033	-0.0089037865
3916.64190	-0.0089103803
3914.71347	-0.0089142350
3912.78504	-0.0089164665
3910.85661	-0.0089136772
3908.92818	-0.0089013008
3906.99975	-0.0088878591
3905.07132	-0.0088901930
3903.14289	-0.0089031775
3901.21446	-0.0089180898
3899.28603	-0.0089295013
3897.35760	-0.0089249872
3895.42917	-0.0089127636
3893.50074	-0.0089116991
3891.57231	-0.0089208279
3889.64388	-0.0089127636
3887.71545	-0.0089139808
3885.78701	-0.0089355875
3883.85858	-0.0089346236
3881.93015	-0.0089319358
3880.00172	-0.0089356890
3878.07329	-0.0089278780
3876.14486	-0.0089231106
3874.21643	-0.0089189010
3872.28800	-0.0089166183
3870.35957	-0.0089347754
3868.43114	-0.0089344205
3866.50271	-0.0089304652
3864.57428	-0.0089370580
3862.64585	-0.0089395428
3860.71742	-0.0089360438
3858.78899	-0.0089081479
3856.86056	-0.0088815186
3854.93213	-0.0089208279
3853.00370	-0.0089751957
3851.07527	-0.0089780362
3849.14684	-0.0089593735
3847.21841	-0.0089440569
3845.28998	-0.0089367535
3843.36155	-0.0089246323
3841.43312	-0.0089043947
3839.50469	-0.0089147929
3837.57626	-0.0089491792
3835.64783	-0.0089573450
3833.71940	-0.0089508025
3831.79097	-0.0089429412
3829.86254	-0.0089368550
3827.93411	-0.0089404052
3826.00568	-0.0089372611
3824.07725	-0.0089283856
3822.14882	-0.0089439051
3820.22039	-0.0089451727
3818.29196	-0.0089373114
3816.36352	-0.0089632785
3814.43509	-0.0089696683
3812.50666	-0.0089581562
3810.57823	-0.0089459335
3808.64980	-0.0089523233
3806.72137	-0.0089665242
3804.79294	-0.0089525264
3802.86451	-0.0089640394
3800.93608	-0.0089859981
3799.00765	-0.0089792022
3797.07922	-0.0089812819
3795.15079	-0.0089846281
3793.22236	-0.0089855408
3791.29393	-0.0089844260
3789.36550	-0.0089755002
3787.43707	-0.0089647491
3785.50864	-0.0089611486
3783.58021	-0.0089618079
3781.65178	-0.0089671323
3779.72335	-0.0089784414
3777.79492	-0.0089814337
3775.86649	-0.0089784926
3773.93806	-0.0089746891
3772.00963	-0.0089802667
3770.08120	-0.0089932494
3768.15277	-0.0089911707
3766.22434	-0.0089892941
3764.29591	-0.0089874174
3762.36748	-0.0089866063
3760.43905	-0.0089953281
3758.51062	-0.0089957342
3756.58219	-0.0089789489
3754.65376	-0.0089633288
3752.72533	-0.0089828540
3750.79690	-0.0090142433
3748.86847	-0.0090167280
3746.94003	-0.0090039494
3745.01160	-0.0090468982
3743.08317	-0.0090652527
3741.15474	-0.0090520699
3739.22631	-0.0090428926
3737.29788	-0.0090597766
3735.36945	-0.0090666218
3733.44102	-0.0090739736
3731.51259	-0.0090934932
3729.58416	-0.0091003878
3727.65573	-0.0090921754
3725.72730	-0.0090920227
3723.79887	-0.0091096656
3721.87044	-0.0091328844
3719.94201	-0.0091396775
3718.01358	-0.0091330372
3716.08515	-0.0091216303
3714.15672	-0.0091268010
3712.22829	-0.0091576232
3710.29986	-0.0091825621
3708.37143	-0.0091812955
3706.44300	-0.0091833733
3704.51457	-0.0091799265
3702.58614	-0.0091933589
3700.65771	-0.0092112515
3698.72928	-0.0092216926
3696.80085	-0.0092261024
3694.87242	-0.0092184488
3692.94399	-0.0092081092
3691.01556	-0.0092149004
3689.08713	-0.0092517473
3687.15870	-0.0092672557
3685.23027	-0.0092596030
3683.30184	-0.0092525585
3681.37341	-0.0092402427
3679.44497	-0.0092251394
3677.51654	-0.0092379116
3675.58811	-0.0092773400
3673.65968	-0.0092821037
3671.73125	-0.0092994347
3669.80282	-0.0093283700
3667.87439	-0.0093297381
3665.94596	-0.0093236575
3664.01753	-0.0093196537
3662.08910	-0.0093160560
3660.16067	-0.0093093673
3658.23224	-0.0093075940
3656.30381	-0.0093091140
3654.37538	-0.0092890467
3652.44695	-0.0092781000
3650.51852	-0.0093015125
3648.59009	-0.0093290787
3646.66166	-0.0093308017
3644.73323	-0.0093142325
3642.80480	-0.0093057193
3640.87637	-0.0093065295
3638.94794	-0.0093017658
3637.01951	-0.0093007525
3635.09108	-0.0092910733
3633.16265	-0.0092685726
3631.23422	-0.0092744008
3629.30579	-0.0092891986
3627.37736	-0.0092983712
3625.44893	-0.0092765801
3623.52050	-0.0092636570
3621.59207	-0.0092561059
3619.66364	-0.0092522539
3617.73521	-0.0092589948
3615.80678	-0.0092541296
3613.87835	-0.0092559028
3611.94992	-0.0092545347
3610.02148	-0.0092527606
3608.09305	-0.0092479968
3606.16462	-0.0092446012
3604.23619	-0.0092372019
3602.30776	-0.0092363907
3600.37933	-0.0092384182
3598.45090	-0.0092300046
3596.52247	-0.0092169279
3594.59404	-0.0091998475
3592.66561	-0.0091841342
3590.73718	-0.0091838809
3588.80875	-0.0092077032
3586.88032	-0.0092307646
3584.95189	-0.0092335017
3583.02346	-0.0092268623
3581.09503	-0.0092164716
3579.16660	-0.0092039527
3577.23817	-0.0091882395
3575.30974	-0.0091761248
3573.38131	-0.0091671022
3571.45288	-0.0091584846
3569.52445	-0.0091534667
3567.59602	-0.0091513367
3565.66759	-0.0091378018
3563.73916	-0.0091217319
3561.81073	-0.0091114407
3559.88230	-0.0091051543
3557.95387	-0.0091013005
3556.02544	-0.0090922257
3554.09701	-0.0090709319
3552.16858	-0.0090444647
3550.24015	-0.0090257535
3548.31172	-0.0090188067
3546.38329	-0.0090117585
3544.45486	-0.0089973062
3542.52643	-0.0089851357
3540.59799	-0.0089816870
3538.66956	-0.0089809773
3536.74113	-0.0089731673
3534.81270	-0.0089561781
3532.88427	-0.0089384271
3530.95584	-0.0089241248
3529.02741	-0.0089097209
3527.09898	-0.0088966340
3525.17055	-0.0088875555
3523.24212	-0.0088778157
3521.31369	-0.0088633085
3519.38526	-0.0088476343
3517.45683	-0.0088343937
3515.52840	-0.0088272411
3513.59997	-0.0088217622
3511.67154	-0.0088082673
3509.74311	-0.0087900031
3507.81468	-0.0087758480
3505.88625	-0.0087670200
3503.95782	-0.0087598152
3502.02939	-0.0087483479
3500.10096	-0.0087324157
3498.17253	-0.0087138945
3496.24410	-0.0086919218
3494.31567	-0.0086683249
3492.38724	-0.0086479234
3490.45881	-0.0086308708
3488.53038	-0.0086142235
3486.60195	-0.0085959509
3484.67352	-0.0085772211
3482.74509	-0.0085606221
3480.81666	-0.0085484898
3478.88823	-0.0085378299
3476.95980	-0.0085210772
3475.03137	-0.0084958458
3473.10293	-0.0084682778
3471.17450	-0.0084422817
3469.24607	-0.0084206508
3467.31764	-0.0084073972
3465.38921	-0.0083958702
3463.46078	-0.0083774868
3461.53235	-0.0083534159
3459.60392	-0.0083286315
3457.67549	-0.0083083659
3455.74706	-0.0082905386
3453.81863	-0.0082679857
3451.89020	-0.0082394378
3449.96177	-0.0082128691
3448.03334	-0.0081940209
3446.10491	-0.0081789317
3444.17648	-0.0081642997
3442.24805	-0.0081477864
3440.31962	-0.0081258873
3438.39119	-0.0081014968
3436.46276	-0.0080795437
3434.53433	-0.0080602327
3432.60590	-0.0080380235
3430.67747	-0.0080089523
3428.74904	-0.0079813022
3426.82061	-0.0079629524
3424.89218	-0.0079450589
3422.96375	-0.0079201506
3421.03532	-0.0078949351
3419.10689	-0.0078731747
3417.17846	-0.0078527872
3415.25003	-0.0078317365
3413.32160	-0.0078085503
3411.39317	-0.0077858199
3409.46474	-0.0077661397
3407.53631	-0.0077492557
3405.60788	-0.0077283024
3403.67944	-0.0077218432
3401.75101	-0.0077978717
3399.82258	-0.0077824634
3397.89415	-0.0076746941
3395.96572	-0.0076437667
3394.03729	-0.0076311002
3392.10886	-0.0076147197
3390.18043	-0.0075938618
3388.25200	-0.0075717815
3386.32357	-0.0075533129
3384.39514	-0.0075391172
3382.46671	-0.0075224279
3380.53828	-0.0075005987
3378.60985	-0.0074749007
3376.68142	-0.0074464022
3374.75299	-0.0074211592
3372.82456	-0.0074009537
3370.89613	-0.0073796269
3368.96770	-0.0073560597
3367.03927	-0.0073335096
3365.11084	-0.0073096342
3363.18241	-0.0072823470
3361.25398	-0.0072549558
3359.32555	-0.0072286832
3357.39712	-0.0072009834
3355.46869	-0.0071696155
3353.54026	-0.0071350872
3351.61183	-0.0071019316
3349.68340	-0.0070723901
3347.75497	-0.0070443745
3345.82654	-0.0070177834
3343.89811	-0.0069947569
3341.96968	-0.0069750408
3340.04125	-0.0069569545
3338.11282	-0.0069401916
3336.18439	-0.0069280653
3334.25595	-0.0069242949
3332.32752	-0.0069265878
3330.39909	-0.0069300523
3328.47066	-0.0069368798
3326.54223	-0.0069536427
3324.61380	-0.0069771297
3322.68537	-0.0069967438
3320.75694	-0.0070136064
3318.82851	-0.0070334226
3316.90008	-0.0070505887
3314.97165	-0.0070600635
3313.04322	-0.0070649534
3311.11479	-0.0070696902
3309.18636	-0.0070767193
3307.25793	-0.0070840032
3305.32950	-0.0070874155
3303.40107	-0.0070874668
3301.47264	-0.0070889439
3299.54421	-0.0070916433
3297.61578	-0.0070932223
3295.68735	-0.0070934258
3293.75892	-0.0070941388
3291.83049	-0.0070997416
3289.90206	-0.0071081962
3287.97363	-0.0071136458
3286.04520	-0.0071173129
3284.11677	-0.0071207252
3282.18834	-0.0071215909
3280.25991	-0.0071255127
3278.33148	-0.0071390085
3276.40305	-0.0071548978
3274.47462	-0.0071665091
3272.54619	-0.0071803094
3270.61776	-0.0072001177
3268.68933	-0.0072216569
3266.76089	-0.0072447727
3264.83246	-0.0072749648
3262.90403	-0.0073114671
3260.97560	-0.0073469994
3259.04717	-0.0073770313
3257.11874	-0.0074057886
3255.19031	-0.0074375472
3253.26188	-0.0074661989
3251.33345	-0.0074907267
3249.40502	-0.0075198840
3247.47659	-0.0075532109
3245.54816	-0.0075838901
3243.61973	-0.0076126340
3241.69130	-0.0076429020
3239.76287	-0.0076719471
3237.83444	-0.0076960060
3235.90601	-0.0077165538
3233.97758	-0.0077381688
3232.04915	-0.0077628340
3230.12072	-0.0077897864
3228.19229	-0.0078162793
3226.26386	-0.0078403810
3224.33543	-0.0078618880
3222.40700	-0.0078814114
3220.47857	-0.0079018492
3218.55014	-0.0079239123
3216.62171	-0.0079426197
3214.69328	-0.0079602078
3212.76485	-0.0079818107
3210.83642	-0.0080051906
3208.90799	-0.0080255717
3206.97956	-0.0080419881
3205.05113	-0.0080572851
3203.12270	-0.0080738012
3201.19427	-0.0080927052
3199.26584	-0.0081136916
3197.33740	-0.0081330007
3195.40897	-0.0081500728
3193.48054	-0.0081662806
3191.55211	-0.0081790332
3189.62368	-0.0081919888
3187.69525	-0.0082083987
3185.76682	-0.0082231304
3183.83839	-0.0082321735
3181.90996	-0.0082406057
3179.98153	-0.0082548298
3178.05310	-0.0082724560
3176.12467	-0.0082865255
3174.19624	-0.0082981065
3172.26781	-0.0083123278
3170.33938	-0.0083254827
3168.41095	-0.0083329482
3166.48252	-0.0083387885
3164.55409	-0.0083474228
3162.62566	-0.0083593065
3160.69723	-0.0083720535
3158.76880	-0.0083801281
3156.84037	-0.0083857141
3154.91194	-0.0083963275
3152.98351	-0.0084105963
3151.05508	-0.0084215645
3149.12665	-0.0084272511
3147.19822	-0.0084310602
3145.26979	-0.0084365942
3143.34136	-0.0084461402
3141.41293	-0.0084575647
3139.48450	-0.0084659923
3137.55607	-0.0084704095
3135.62764	-0.0084742690
3133.69921	-0.0084791938
3131.77078	-0.0084856413
3129.84235	-0.0084969625
3127.91391	-0.0085108224
3125.98548	-0.0085181333
3124.05705	-0.0085204681
3122.12862	-0.0085254433
3120.20019	-0.0085342759
3118.27176	-0.0085441247
3116.34333	-0.0085509773
3114.41490	-0.0085572721
3112.48647	-0.0085680336
3110.55804	-0.0085787438
3108.62961	-0.0085827541
3106.70118	-0.0085831601
3104.77275	-0.0085881343
3102.84432	-0.0085976766
3100.91589	-0.0086041735
3098.98746	-0.0086052902
3097.05903	-0.0086079296
3095.13060	-0.0086179785
3093.20217	-0.0086306166
3091.27374	-0.0086361999
3089.34531	-0.0086343726
3087.41688	-0.0086383307
3085.48845	-0.0086535057
3083.56002	-0.0086681219
3081.63159	-0.0086728409
3079.70316	-0.0086713191
3077.77473	-0.0086713694
3075.84630	-0.0086807068
3073.91787	-0.0086946627
3071.98944	-0.0087024262
3070.06101	-0.0087047098
3068.13258	-0.0087088207
3066.20415	-0.0087187150
3064.27572	-0.0087303864
3062.34729	-0.0087356120
3060.41885	-0.0087320609
3058.49042	-0.0087299291
3056.56199	-0.0087380987
3054.63356	-0.0087503269
3052.70513	-0.0087567205
3050.77670	-0.0087576844
3048.84827	-0.0087608807
3046.91984	-0.0087696584
3044.99141	-0.0087785879
3043.06298	-0.0087811751
3041.13455	-0.0087807188
3039.20612	-0.0087869084
3037.27769	-0.0088000996
3035.34926	-0.0088102464
3033.42083	-0.0088117681
3031.49240	-0.0088077597
3029.56397	-0.0088054771
3027.63554	-0.0088092824
3025.70711	-0.0088170944
3023.77868	-0.0088214576
3021.85025	-0.0088117169
3019.92182	-0.0087911198
3017.99339	-0.0087849302
3016.06496	-0.0088069486
3014.13653	-0.0088349516
3012.20810	-0.0088462140
3010.27967	-0.0088465177
3008.35124	-0.0088486997
3006.42281	-0.0088533154
3004.49438	-0.0088502215
3002.56595	-0.0088800984
3000.63752	-0.0090052169
2998.70909	-0.0088659460
2996.78066	-0.0088667581
2994.85223	-0.0088697001
2992.92380	-0.0088685844
2990.99536	-0.0088684317
2989.06693	-0.0088707656
2987.13850	-0.0088729467
2985.21007	-0.0088735549
2983.28164	-0.0088745700
2981.35321	-0.0088770548
2979.42478	-0.0088816714
2977.49635	-0.0088868449
2975.56792	-0.0088924244
2973.63949	-0.0088983085
2971.71106	-0.0089015039
2969.78263	-0.0089059165
2967.85420	-0.0089234151
2965.92577	-0.0089548090
2963.99734	-0.0089898007
2962.06891	-0.0090205818
2960.14048	-0.0090443632
2958.21205	-0.0090616019
2956.28362	-0.0090678390
2954.35519	-0.0090560755
2952.42676	-0.0090295570
2950.49833	-0.0089984722
2948.56990	-0.0089721028
2946.64147	-0.0089559248
2944.71304	-0.0089512076
2942.78461	-0.0089552142
2940.85618	-0.0089691104
2938.92775	-0.0090031382
2936.99932	-0.0090622110
2935.07089	-0.0091312621
2933.14246	-0.0091949301
2931.21403	-0.0092501258
2929.28560	-0.0092977630
2927.35717	-0.0093380986
2925.42874	-0.0093639903
2923.50031	-0.0093588224
2921.57187	-0.0093164109
2919.64344	-0.0092514427
2917.71501	-0.0091869216
2915.78658	-0.0091307051
2913.85815	-0.0090699680
2911.92972	-0.0089905616
2910.00129	-0.0088972934
2908.07286	-0.0088080643
2906.14443	-0.0087330751
2904.21600	-0.0086696446
2902.28757	-0.0086143250
2900.35914	-0.0085679321
2898.43071	-0.0085308747
2896.50228	-0.0084995516
2894.57385	-0.0084716287
2892.64542	-0.0084477141
2890.71699	-0.0084279627
2888.78856	-0.0084120687
2886.86013	-0.0084005930
2884.93170	-0.0083930772
2883.00327	-0.0083889132
2881.07484	-0.0083888620
2879.14641	-0.0083949054
2877.21798	-0.0084081078
2875.28955	-0.0084235445
2873.36112	-0.0084355278
2871.43269	-0.0084446166
2869.50426	-0.0084526390
2867.57583	-0.0084603066
2865.64740	-0.0084730498
2863.71897	-0.0084995013
2861.79054	-0.0085430583
2859.86211	-0.0085987421
2857.93368	-0.0086564496
2856.00525	-0.0087036956
2854.07681	-0.0087315021
2852.14838	-0.0087419553
2850.21995	-0.0087402295
2848.29152	-0.0087233838
2846.36309	-0.0086866450
2844.43466	-0.0086347787
2842.50623	-0.0085811298
2840.57780	-0.0085376771
2838.64937	-0.0085077258
2836.72094	-0.0084878746
2834.79251	-0.0084783304
2832.86408	-0.0084766550
2830.93565	-0.0084754359
2829.00722	-0.0084702577
2827.07879	-0.0084633529
2825.15036	-0.0084560411
2823.22193	-0.0084512681
2821.29350	-0.0084560411
2819.36507	-0.0084693944
2817.43664	-0.0084822904
2815.50821	-0.0084887380
2813.57978	-0.0084876716
2811.65135	-0.0084858444
2809.72292	-0.0084905662
2807.79449	-0.0084984349
2805.86606	-0.0085022431
2803.93763	-0.0085028522
2802.00920	-0.0085043749
2800.08077	-0.0085053900
2798.15234	-0.0085053397
2796.22391	-0.0085055931
2794.29548	-0.0085050855
2792.36705	-0.0085046291
2790.43862	-0.0085050855
2788.51019	-0.0085047306
2786.58176	-0.0085034613
2784.65332	-0.0085015316
2782.72489	-0.0085005676
2780.79646	-0.0085007194
2778.86803	-0.0084995516
2776.93960	-0.0084976740
2775.01117	-0.0084967092
2773.08274	-0.0084958971
2771.15431	-0.0084945261
2769.22588	-0.0084929522
2767.29745	-0.0084920889
2765.36902	-0.0084934598
2763.44059	-0.0084961001
2761.51216	-0.0084993998
2759.58373	-0.0085023949
2757.65530	-0.0085024964
2755.72687	-0.0085002119
2753.79844	-0.0085005676
2751.87001	-0.0085045779
2749.94158	-0.0085072182
2748.01315	-0.0085042734
2746.08472	-0.0084997555
2744.15629	-0.0084984349
2742.22786	-0.0084991967
2740.29943	-0.0085009225
2738.37100	-0.0085035628
2736.44257	-0.0085050855
2734.51414	-0.0085050352
2732.58571	-0.0085017346
2730.65728	-0.0084955916
2728.72885	-0.0084925462
2726.80042	-0.0084960489
2724.87199	-0.0085014813
2722.94356	-0.0085037658
2721.01513	-0.0085017346
2719.08670	-0.0084983846
2717.15827	-0.0084989937
2715.22983	-0.0085031567
2713.30140	-0.0085046291
2711.37297	-0.0085018873
2709.44454	-0.0084999586
2707.51611	-0.0085024461
2705.58768	-0.0085079288
2703.65925	-0.0085096546
2701.73082	-0.0085049840
2699.80239	-0.0085006179
2697.87396	-0.0085018370
2695.94553	-0.0085055428
2694.01710	-0.0085075730
2692.08867	-0.0085078776
2690.16024	-0.0085087409
2688.23181	-0.0085101118
2686.30338	-0.0085136145
2684.37495	-0.0085203154
2682.44652	-0.0085239708
2680.51809	-0.0085232602
2678.58966	-0.0085227014
2676.66123	-0.0085224481
2674.73280	-0.0085208239
2672.80437	-0.0085176248
2670.87594	-0.0085112285
2668.94751	-0.0084981816
2667.01908	-0.0084702577
2665.09065	-0.0084165372
2663.16222	-0.0083402107
2661.23379	-0.0082624992
2659.30536	-0.0082006762
2657.37693	-0.0081585580
2655.44850	-0.0081321876
2653.52007	-0.0081162322
2651.59164	-0.0081093730
2649.66321	-0.0081126755
2647.73477	-0.0081239054
2645.80634	-0.0081371674
2643.87791	-0.0081499713
2641.94948	-0.0081668394
2640.02105	-0.0081907697
2638.09262	-0.0082200831
2636.16419	-0.0082492419
2634.23576	-0.0082759093
2632.30733	-0.0083024241
2630.37890	-0.0083298506
2628.45047	-0.0083593065
2626.52204	-0.0083920108
2624.59361	-0.0084236460
2622.66518	-0.0084504057
2620.73675	-0.0084734559
2618.80832	-0.0084961504
2616.87989	-0.0085231587
2614.95146	-0.0085579315
2613.02303	-0.0085983872
2611.09460	-0.0086355908
2609.16617	-0.0086641628
2607.23774	-0.0086882180
2605.30931	-0.0087085664
2603.38088	-0.0087276967
2601.45245	-0.0087546902
2599.52402	-0.0087887347
2597.59559	-0.0088221170
2595.66716	-0.0088485470
2593.73873	-0.0088617867
2591.81030	-0.0088694971
2589.88187	-0.0088870982
2587.95344	-0.0089139305
2586.02501	-0.0089393910
2584.09658	-0.0089621115
2582.16815	-0.0089863017
2580.23972	-0.0090127727
2578.31128	-0.0090365540
2576.38285	-0.0090530338
2574.45442	-0.0090622613
2572.52599	-0.0090688020
2570.59756	-0.0090811728
2568.66913	-0.0091082463
2566.74070	-0.0091406917
2564.81227	-0.0091578765
2562.88384	-0.0091569135
2560.95541	-0.0091530103
2559.02698	-0.0091595491
2557.09855	-0.0091784569
2555.17012	-0.0091967043
2553.24169	-0.0092064869
2551.31326	-0.0092156613
2549.38483	-0.0092339581
2547.45640	-0.0092601599
2545.52797	-0.0092799757
2543.59954	-0.0092844348
2541.67111	-0.0092841312
2539.74268	-0.0092904149
2537.81425	-0.0092992326
2535.88582	-0.0093082525
2533.95739	-0.0093141813
2532.02896	-0.0093059214
2530.10053	-0.0092904149
2528.17210	-0.0092880335
2526.24367	-0.0093084555
2524.31524	-0.0093425578
2522.38681	-0.0093666250
2520.45838	-0.0093668783
2518.52995	-0.0093531981
2516.60152	-0.0093442295
2514.67309	-0.0093494486
2512.74466	-0.0093563907
2510.81623	-0.0093521848
2508.88779	-0.0093504116
2506.95936	-0.0093567446
2505.03093	-0.0093579609
2503.10250	-0.0093579106
2501.17407	-0.0093666250
2499.24564	-0.0093756439
2497.31721	-0.0093736676
2495.38878	-0.0093703745
2493.46035	-0.0093782274
2491.53192	-0.0093946429
2489.60349	-0.0094074104
2487.67506	-0.0094053838
2485.74663	-0.0093958592
2483.81820	-0.0093988487
2481.88977	-0.0094116153
2479.96134	-0.0094182016
2478.03291	-0.0094132870
2476.10448	-0.0094032558
2474.17605	-0.0093992539
2472.24762	-0.0094015840
2470.31919	-0.0093981391
2468.39076	-0.0093825348
2466.46233	-0.0093668783
2464.53390	-0.0093627749
2462.60547	-0.0093619134
2460.67704	-0.0093503604
2458.74861	-0.0093256840
2456.82018	-0.0092950268
2454.89175	-0.0092746541
2452.96332	-0.0092797726
2451.03489	-0.0093002459
2449.10646	-0.0093151443
2447.17803	-0.0093251271
2445.24960	-0.0093442295
2443.32117	-0.0093674362
2441.39273	-0.0093787350
2439.46430	-0.0093860812
2437.53587	-0.0094012804
2435.60744	-0.0094106533
2433.67901	-0.0094095888
2431.75058	-0.0094178468
2429.82215	-0.0094420118
2427.89372	-0.0094593875
2425.96529	-0.0094578164
2424.03686	-0.0094531560
2422.10843	-0.0094586778
2420.18000	-0.0094727091
2418.25157	-0.0094894255
2416.32314	-0.0094948960
2414.39471	-0.0094771674
2412.46628	-0.0094492557
2410.53785	-0.0094375536
2408.60942	-0.0094581209
2406.68099	-0.0095060393
2404.75256	-0.0095572444
2402.82413	-0.0095688924
2400.89570	-0.0095677283
2398.96727	-0.0103802066
2397.03884	-0.0096444469
2395.11041	-0.0094790924
2393.18198	-0.0095134340
2391.25355	-0.0095015317
2389.32512	-0.0094881589
2387.39669	-0.0094820298
2385.46826	-0.0094787376
2383.53983	-0.0094618183
2381.61140	-0.0094507756
2379.68297	-0.0095094834
2377.75454	-0.0094893239
2375.82611	-0.0091729825
2373.89768	-0.0093101785
2371.96924	-0.0094542708
2370.04081	-0.0097017614
2368.11238	-0.0099816453
2366.18395	-0.0094013819
2364.25552	-0.0090830494
2362.32709	-0.0093007023
2360.39866	-0.0099158660
2358.47023	-0.0095463553
2356.54180	-0.0090689538
2354.61337	-0.0089465929
2352.68494	-0.0090969410
2350.75651	-0.0090483176
2348.82808	-0.0090129757
2346.89965	-0.0089487229
2344.97122	-0.0090283910
2343.04279	-0.0090785874
2341.11436	-0.0081284782
2339.18593	-0.0091340002
2337.25750	-0.0090200240
2335.32907	-0.0089062210
2333.40064	-0.0089136772
2331.47221	-0.0089225527
2329.54378	-0.0088414447
2327.61535	-0.0085890982
2325.68692	-0.0081759850
2323.75849	-0.0078237029
2321.83006	-0.0077858199
2319.90163	-0.0079665612
2317.97320	-0.0081931576
2316.04477	-0.0083701238
2314.11634	-0.0084757404
2312.18791	-0.0085445307
2310.25948	-0.0086098583
2308.33105	-0.0086701009
2306.40262	-0.0087345466
2304.47419	-0.0087929461
2302.54575	-0.0088183628
2300.61732	-0.0088375900
2298.68889	-0.0088566635
2296.76046	-0.0088350531
2294.83203	-0.0088099418
2292.90360	-0.0087735141
2290.97517	-0.0087122200
2289.04674	-0.0086625898
2287.11831	-0.0086252363
2285.18988	-0.0086221406
2283.26145	-0.0086817220
2281.33302	-0.0087856911
2279.40459	-0.0089037353
2277.47616	-0.0090048620
2275.54773	-0.0090780808
2273.61930	-0.0091456594
2271.69087	-0.0092173843
2269.76244	-0.0092882356
2267.83401	-0.0093634333
2265.90558	-0.0094241286
2263.97715	-0.0094628828
2262.04872	-0.0094952509
2260.12029	-0.0095337443
2258.19186	-0.0096025690
2256.26343	-0.0097161392
2254.33500	-0.0098745208
2252.40657	-0.0097576007
2250.47814	-0.0089363484
2248.54971	-0.0098663224
2246.62128	-0.0098760901
2244.69285	-0.0098819602
2242.76442	-0.0099341329
2240.83599	-0.0099666184
2238.90756	-0.0099690976
2236.97913	-0.0099941418
2235.05069	-0.0100571271
2233.12226	-0.0101200528
2231.19383	-0.0101824123
2229.26540	-0.0102851130
2227.33697	-0.0104209976
2225.40854	-0.0105265211
2223.48011	-0.0105582038
2221.55168	-0.0105227316
2219.62325	-0.0104982229
2217.69482	-0.0105480980
2215.76639	-0.0106490953
2213.83796	-0.0107669374
2211.90953	-0.0108817685
2209.98110	-0.0109598711
2208.05267	-0.0109754195
2206.12424	-0.0109710777
2204.19581	-0.0109869791
2202.26738	-0.0109657273
2200.33895	-0.0109232701
2198.41052	-0.0109115578
2196.48209	-0.0109053478
2194.55366	-0.0109149907
2192.62523	-0.0108848996
2190.69680	-0.0107646147
2188.76837	-0.0107119353
2186.83994	-0.0108245593
2184.91151	-0.0109580038
2182.98308	-0.0111054359
2181.05465	-0.0113232890
2179.12622	-0.0114344433
2177.19779	-0.0114311660
2175.26936	-0.0114393346
2173.34093	-0.0113606630
2171.41250	-0.0111495405
2169.48407	-0.0108928261
2167.55564	-0.0106633408
2165.62720	-0.0105751306
2163.69877	-0.0106724845
2161.77034	-0.0110970084
2159.84191	-0.0122227026
2157.91348	-0.0137022492
2155.98505	-0.0144210057
2154.05662	-0.0142371692
2152.12819	-0.0137717202
2150.19976	-0.0133966925
2148.27133	-0.0131319109
2146.34290	-0.0129641611
2144.41447	-0.0128518390
2142.48604	-0.0126929814
2140.55761	-0.0125200814
2138.62918	-0.0124469884
2136.70075	-0.0125210378
2134.77232	-0.0126991151
2132.84389	-0.0128014730
2130.91546	-0.0126723154
2128.98703	-0.0123611530
2127.05860	-0.0120090777
2125.13017	-0.0117219314
2123.20174	-0.0115416879
2121.27331	-0.0114150289
2119.34488	-0.0112686092
2117.41645	-0.0111065460
2115.48802	-0.0109563377
2113.55959	-0.0108452123
2111.63116	-0.0108107226
2109.70273	-0.0108378399
2107.77430	-0.0108707109
2105.84587	-0.0108875753
2103.91744	-0.0109093357
2101.98901	-0.0109365480
2100.06058	-0.0109351343
2098.13215	-0.0107449172
2096.20371	-0.0111934887
2094.27528	-0.0113222292
2092.34685	-0.0111604398
2090.41842	-0.0109190298
2088.48999	-0.0107695637
2086.56156	-0.0107425433
2084.63313	-0.0107366340
2082.70470	-0.0107817352
2080.77627	-0.0108898981
2078.84784	-0.0110065136
2076.91941	-0.0111195156
2074.99098	-0.0112759741
2073.06255	-0.0114112971
2071.13412	-0.0114717074
2069.20569	-0.0115525266
2067.27726	-0.0116755161
2065.34883	-0.0117656700
2063.42040	-0.0118200360
2061.49197	-0.0118321273
2059.56354	-0.0117825503
2057.63511	-0.0117440531
2055.70668	-0.0117490422
2053.77825	-0.0116853444
2051.84982	-0.0116232503
2049.92139	-0.0119261779
2047.99296	-0.0126604987
2046.06453	-0.0133434786
2044.13610	-0.0136095863
2042.20767	-0.0135957878
2040.27924	-0.0136113921
2038.35081	-0.0137990545
2036.42238	-0.0141314408
2034.49395	-0.0145855909
2032.56552	-0.0149985561
2030.63709	-0.0150855733
2028.70865	-0.0149149243
2026.78022	-0.0147932488
2024.85179	-0.0147801880
2022.92336	-0.0147341993
2020.99493	-0.0145954024
2019.06650	-0.0144901620
2017.13807	-0.0145538002
2015.20964	-0.0147146815
2013.28121	-0.0148189170
2011.35278	-0.0148510886
2009.42435	-0.0149570424
2007.49592	-0.0152041176
2005.56749	-0.0152607039
2003.63906	-0.0147929480
2001.71063	-0.0141000180
1999.78220	-0.0136542898
1997.85377	-0.0134466384
1995.92534	-0.0132091576
1993.99691	-0.0129502416
1992.06848	-0.0128097171
1990.14005	-0.0127181709
1988.21162	-0.0125747053
1986.28319	-0.0124517679
1984.35476	-0.0125078587
1982.42633	-0.0128516378
1980.49790	-0.0134891504
1978.56947	-0.0143134184
1976.64104	-0.0150114605
1974.71261	-0.0152802970
1972.78418	-0.0151821710
1970.85575	-0.0149533907
1968.92732	-0.0147035206
1966.99889	-0.0144416885
1965.07046	-0.0142019456
1963.14203	-0.0140524032
1961.21360	-0.0139453253
1959.28516	-0.0137028508
1957.35673	-0.0132900560
1955.42830	-0.0128930528
1953.49987	-0.0126428483
1951.57144	-0.0124981999
1949.64301	-0.0123799210
1947.71458	-0.0122729344
1945.78615	-0.0121931043
1943.85772	-0.0121326940
1941.92929	-0.0120609961
1940.00086	-0.0119814295
1938.07243	-0.0119514624
1936.14400	-0.0119876238
1934.21557	-0.0119967898
1932.28714	-0.0119228531
1930.35871	-0.0118199857
1928.43028	-0.0117089795
1926.50185	-0.0115619535
1924.57342	-0.0113881491
1922.64499	-0.0112217925
1920.71656	-0.0110938288
1918.78813	-0.0110282684
1916.85970	-0.0110105015
1914.93127	-0.0110074729
1913.00284	-0.0109945508
1911.07441	-0.0109770847
1909.14598	-0.0109673925
1907.21755	-0.0109498249
1905.28912	-0.0109120114
1903.36069	-0.0108732358
1901.43226	-0.0108502107
1899.50383	-0.0108341537
1897.57540	-0.0108251143
1895.64697	-0.0108199641
1893.71854	-0.0107852193
1891.79011	-0.0107189054
1889.86167	-0.0106650582
1887.93324	-0.0106370719
1886.00481	-0.0106172170
1884.07638	-0.0105886208
1882.14795	-0.0105547179
1880.21952	-0.0105349096
1878.29109	-0.0105201043
1876.36266	-0.0104872566
1874.43423	-0.0104418211
1872.50580	-0.0104014361
1870.57737	-0.0103768194
1868.64894	-0.0103625134
1866.72051	-0.0103509882
1864.79208	-0.0103443144
1862.86365	-0.0103301089
1860.93522	-0.0103049828
1859.00679	-0.0102771744
1857.07836	-0.0102501744
1855.14993	-0.0102321226
1853.22150	-0.0102294926
1851.29307	-0.0102366731
1849.36464	-0.0102390498
1847.43621	-0.0102191269
1845.50778	-0.0101845870
1843.57935	-0.0101404861
1841.65092	-0.0100943577
1839.72249	-0.0100721512
1837.79406	-0.0100566717
1835.86563	-0.0100323390
1833.93720	-0.0100069931
1832.00877	-0.0099931303
1830.08034	-0.0099953562
1828.15191	-0.0100037046
1826.22348	-0.0100257620
1824.29505	-0.0100625902
1822.36661	-0.0101320399
1820.43818	-0.0102553824
1818.50975	-0.0103611993
1816.58132	-0.0103090778
1814.65289	-0.0100865681
1812.72446	-0.0098456228
1810.79603	-0.0096908761
1808.86760	-0.0096088992
1806.93917	-0.0095631192
1805.01074	-0.0095322253
1803.08231	-0.0095143458
1801.15388	-0.0095110033
1799.22545	-0.0095064444
1797.29702	-0.0094880071
1795.36859	-0.0094677964
1793.44016	-0.0094658714
1791.51173	-0.0094645545
1789.58330	-0.0094498638
1787.65487	-0.0094376551
1785.72644	-0.0094302082
1783.79801	-0.0094230147
1781.86958	-0.0094269151
1779.94115	-0.0094448989
1778.01272	-0.0094555877
1776.08429	-0.0094367433
1774.15586	-0.0093963658
1772.22743	-0.0093519818
1770.29900	-0.0093061244
1768.37057	-0.0092862090
1766.44214	-0.0092713097
1764.51371	-0.0092605660
1762.58528	-0.0092655830
1760.65685	-0.0092660394
1758.72842	-0.0092645688
1756.79999	-0.0092690289
1754.87156	-0.0092691807
1752.94312	-0.0092867659
1751.01469	-0.0093123568
1749.08626	-0.0093200598
1747.15783	-0.0093263425
1745.22940	-0.0093319677
1743.30097	-0.0093327779
1741.37254	-0.0093324231
1739.44411	-0.0093240626
1737.51568	-0.0092936577
1735.58725	-0.0092863105
1733.65882	-0.0092839794
1731.73039	-0.0092463754
1729.80196	-0.0092169279
1727.87353	-0.0091960458
1725.94510	-0.0091760745
1724.01667	-0.0091541251
1722.08824	-0.0091209207
1720.15981	-0.0090969410
1718.23138	-0.0091085508
1716.30295	-0.0091137728
1714.37452	-0.0091044949
1712.44609	-0.0090920739
1710.51766	-0.0090739233
1708.58923	-0.0090529323
1706.66080	-0.0090356413
1704.73237	-0.0090048118
1702.80394	-0.0089709871
1700.87551	-0.0089704292
1698.94708	-0.0089428397
1697.01865	-0.0089305155
1695.09022	-0.0089302110
1693.16179	-0.0088964822
1691.23336	-0.0088755339
1689.30493	-0.0088482425
1687.37650	-0.0088204434
1685.44807	-0.0088342419
1683.51963	-0.0088311471
1681.59120	-0.0087946197
1679.66277	-0.0087683899
1677.73434	-0.0087477397
1675.80591	-0.0087411935
1673.87748	-0.0087179039
1671.94905	-0.0086926837
1670.02062	-0.0086866952
1668.09219	-0.0086687813
1666.16376	-0.0086376201
1664.23533	-0.0086185876
1662.30690	-0.0086020418
1660.37847	-0.0085735666
1658.45004	-0.0085365605
1656.52161	-0.0084952870
1654.59318	-0.0085043749
1652.66475	-0.0085248342
1650.73632	-0.0084781274
1648.80789	-0.0084448196
1646.87946	-0.0084404536
1644.95103	-0.0084162839
1643.02260	-0.0083831744
1641.09417	-0.0083609316
1639.16574	-0.0083400076
1637.23731	-0.0083422931
1635.30888	-0.0083568692
1633.38045	-0.0083449343
1631.45202	-0.0083391955
1629.52359	-0.0083462037
1627.59516	-0.0083533144
1625.66673	-0.0083619980
1623.73830	-0.0083841905
1621.80987	-0.0083951596
1619.88144	-0.0083990190
1617.95301	-0.0084313648
1616.02457	-0.0084586302
1614.09614	-0.0084548229
1612.16771	-0.0084584272
1610.23928	-0.0084628444
1608.31085	-0.0084633529
1606.38242	-0.0084602553
1604.45399	-0.0084555335
1602.52556	-0.0084494911
1600.59713	-0.0084442105
1598.66870	-0.0084431442
1596.74027	-0.0084481714
1594.81184	-0.0084564984
1592.88341	-0.0084653329
1590.95498	-0.0084781777
1589.02655	-0.0084986892
1587.09812	-0.0085217878
1585.16969	-0.0085370680
1583.24126	-0.0085359514
1581.31283	-0.0085145794
1579.38440	-0.0084851841
1577.45597	-0.0084904647
1575.52754	-0.0085002119
1573.59911	-0.0084766550
1571.67068	-0.0084737102
1569.74225	-0.0084875701
1567.81382	-0.0084899571
1565.88539	-0.0084890937
1563.95696	-0.0084736086
1562.02853	-0.0084602050
1560.10010	-0.0084912255
1558.17167	-0.0085075228
1556.24324	-0.0084937643
1554.31481	-0.0084983334
1552.38638	-0.0084976740
1550.45795	-0.0084974701
1548.52952	-0.0084914286
1546.60108	-0.0084832041
1544.67265	-0.0084768068
1542.74422	-0.0084798532
1540.81579	-0.0085155945
1538.88736	-0.0085434141
1536.95893	-0.0085272202
1535.03050	-0.0085233115
1533.10207	-0.0085253920
1531.17364	-0.0085123451
1529.24521	-0.0085073197
1527.31678	-0.0085091470
1525.38835	-0.0085034613
1523.45992	-0.0085003134
1521.53149	-0.0085146297
1519.60306	-0.0085097058
1517.67463	-0.0085090455
1515.74620	-0.0085125482
1513.81777	-0.0085124467
1511.88934	-0.0085109752
1509.96091	-0.0085028522
1508.03248	-0.0085228030
1506.10405	-0.0085487943
1504.17562	-0.0085327029
1502.24719	-0.0085149342
1500.31876	-0.0085088937
1498.39033	-0.0085110767
1496.46190	-0.0085152900
1494.53347	-0.0084985876
1492.60504	-0.0084809195
1490.67661	-0.0084742690
1488.74818	-0.0084550260
1486.81975	-0.0084233927
1484.89132	-0.0083804326
1482.96289	-0.0083334055
1481.03446	-0.0082901828
1479.10603	-0.0082562007
1477.17759	-0.0082354750
1475.24916	-0.0082248580
1473.32073	-0.0082324268
1471.39230	-0.0082378117
1469.46387	-0.0082273977
1467.53544	-0.0082057053
1465.60701	-0.0081729367
1463.67858	-0.0081188744
1461.75015	-0.0080468161
1459.82172	-0.0079815565
1457.89329	-0.0079462789
1455.96486	-0.0078986455
1454.03643	-0.0078282282
1452.10800	-0.0077768699
1450.17957	-0.0077401525
1448.25114	-0.0077183340
1446.32271	-0.0076995660
1444.39428	-0.0076817130
1442.46585	-0.0076603498
1440.53742	-0.0076226559
1438.60899	-0.0075765131
1436.68056	-0.0075185611
1434.75213	-0.0074188691
1432.82370	-0.0073126378
1430.89527	-0.0072255773
1428.96684	-0.0071612634
1427.03841	-0.0071285176
1425.10998	-0.0071341195
1423.18155	-0.0071679857
1421.25312	-0.0072399359
1419.32469	-0.0073448610
1417.39626	-0.0074359695
1415.46783	-0.0075142356
1413.53940	-0.0075770728
1411.61097	-0.0076217907
1409.68253	-0.0076513970
1407.75410	-0.0076710824
1405.82567	-0.0076901568
1403.89724	-0.0077058221
1401.96881	-0.0077167572
1400.04038	-0.0077315066
1398.11195	-0.0077418815
1396.18352	-0.0077490523
1394.25509	-0.0077516967
1392.32666	-0.0077353208
1390.39823	-0.0077088741
1388.46980	-0.0076810010
1386.54137	-0.0076433597
1384.61294	-0.0075849588
1382.68451	-0.0074940855
1380.75608	-0.0073627788
1378.82765	-0.0072125425
1376.89922	-0.0070627630
1374.97079	-0.0069198110
1373.04236	-0.0067859353
1371.11393	-0.0066820984
1369.18550	-0.0066324905
1367.25707	-0.0066249445
1365.32864	-0.0066298391
1363.40021	-0.0066313688
1361.47178	-0.0066316240
1359.54335	-0.0066409032
1357.61492	-0.0066594109
1355.68649	-0.0066832709
1353.75806	-0.0067182425
1351.82963	-0.0067649861
1349.90120	-0.0068028057
1347.97277	-0.0068064244
1346.04434	-0.0067672292
1344.11591	-0.0066898982
1342.18748	-0.0065883333
1340.25904	-0.0064829192
1338.33061	-0.0063916617
1336.40218	-0.0063319695
1334.47375	-0.0063113561
1332.54532	-0.0063252347
1330.61689	-0.0063567655
1328.68846	-0.0063803871
1326.76003	-0.0063763061
1324.83160	-0.0063325306
1322.90317	-0.0062448140
1320.97474	-0.0061224201
1319.04631	-0.0059887068
1317.11788	-0.0058782436
1315.18945	-0.0058263987
1313.26102	-0.0058478015
1311.33259	-0.0059305425
1309.40416	-0.0060528885
1307.47573	-0.0061968919
1305.54730	-0.0063505415
1303.61887	-0.0065036267
1301.69044	-0.0066462569
1299.76201	-0.0067724283
1297.83358	-0.0068769567
1295.90515	-0.0069520124
1293.97672	-0.0069971513
1292.04829	-0.0070238453
1290.11986	-0.0070404010
1288.19143	-0.0070406557
1286.26300	-0.0070152874
1284.33457	-0.0069667874
1282.40614	-0.0069176708
1280.47771	-0.0068989191
1278.54928	-0.0069177728
1276.62085	-0.0069541521
1274.69242	-0.0069910889
1272.76399	-0.0070287357
1270.83555	-0.0070704543
1268.90712	-0.0071190954
1266.97869	-0.0071759806
1265.05026	-0.0072323494
1263.12183	-0.0072728265
1261.19340	-0.0072922236
1259.26497	-0.0072978237
1257.33654	-0.0072972127
1255.40811	-0.0072923256
1253.47968	-0.0072816852
1251.55125	-0.0072641205
1249.62282	-0.0072430926
1247.69439	-0.0072305165
1245.76596	-0.0072369827
1243.83753	-0.0072597419
1241.90910	-0.0072854524
1239.98067	-0.0073020998
1238.05224	-0.0073058163
1236.12381	-0.0073053581
1234.19538	-0.0073178816
1232.26695	-0.0073555508
1230.33852	-0.0074140341
1228.41009	-0.0074815671
1226.48166	-0.0075571798
1224.55323	-0.0076459032
1222.62480	-0.0077355243
1220.69637	-0.0078041772
1218.76794	-0.0078473464
1216.83951	-0.0078712432
1214.91108	-0.0078725144
1212.98265	-0.0078364657
1211.05422	-0.0077491030
1209.12579	-0.0076219435
1207.19736	-0.0074961209
1205.26893	-0.0074106241
1203.34049	-0.0073669530
1201.41206	-0.0073476611
1199.48363	-0.0074203447
1197.55520	-0.0074955099
1195.62677	-0.0075837886
1193.69834	-0.0076735239
1191.76991	-0.0077557145
1189.84148	-0.0078179576
1187.91305	-0.0078478036
1185.98462	-0.0078388555
1184.05619	-0.0077892267
1182.12776	-0.0076991594
1180.19933	-0.0075689326
1178.27090	-0.0073910286
1176.34247	-0.0071444581
1174.41404	-0.0068053030
1172.48561	-0.0063574798
1170.55718	-0.0057947775
1168.62875	-0.0051440201
1166.70032	-0.0044867522
1164.77189	-0.0039315214
1162.84346	-0.0035675110
1160.91503	-0.0034305945
1158.98660	-0.0034926385
1157.05817	-0.0036864176
1155.12974	-0.0039456300
1153.20131	-0.0042277086
1151.27288	-0.0045119100
1149.34445	-0.0047875280
1147.41602	-0.0050524301
1145.48759	-0.0053127208
1143.55916	-0.0055601797
1141.63073	-0.0057627456
1139.70230	-0.0058817170
1137.77387	-0.0058850367
1135.84544	-0.0057658623
1133.91700	-0.0055539440
1131.98857	-0.0052836197
1130.06014	-0.0049550366
1128.13171	-0.0045538712
1126.20328	-0.0041034627
1124.27485	-0.0036629571
1122.34642	-0.0032608528
1120.41799	-0.0028606388
1118.48956	-0.0023936934
1116.56113	-0.0018188687
1114.63270	-0.0011902610
1112.70427	-0.0006509582
1110.77584	-0.0003096928
1108.84741	-0.0001581345
1106.91898	-0.0001281684
1104.99055	-0.0001781625
1103.06212	-0.0003108827
1101.13369	-0.0005334927
1099.20526	-0.0008207411
1097.27683	-0.0011269060
1095.34840	-0.0014124723
1093.41997	-0.0016468968
1091.49154	-0.0018082997
1089.56311	-0.0018900095
1087.63468	-0.0018981539
1085.70625	-0.0018366034
1083.77782	-0.0016800073
1081.84939	-0.0013903336
1079.92096	-0.0009654047
1077.99253	-0.0004523546
1076.06410	0.0000787781
1074.13567	0.0005916902
1072.20724	0.0011188596
1070.27881	0.0017203934
1068.35038	0.0024329906
1066.42195	0.0032665865
1064.49351	0.0041967579
1062.56508	0.0051359199
1060.63665	0.0059353337
1058.70822	0.0064661694
1056.77979	0.0067098006
1054.85136	0.0067205001
1052.92293	0.0065357755
1050.99450	0.0061816075
1049.06607	0.0057136440
1047.13764	0.0052185431
1045.20921	0.0048089856
1043.28078	0.0046121217
1041.35235	0.0047290833
1039.42392	0.0051744790
1037.49549	0.0058350740
1035.56706	0.0065087625
1033.63863	0.0070021800
1031.71020	0.0072163432
1029.78177	0.0071701547
1027.85334	0.0069508851
1025.92491	0.0066491556
1023.99648	0.0063314298
1022.06805	0.0060346979
1020.13962	0.0057768598
1018.21119	0.0055710091
1016.28276	0.0054169144
1014.35433	0.0052839145
1012.42590	0.0051303930
1010.49747	0.0049516587
1008.56904	0.0047837547
1006.64061	0.0046609435
1004.71218	0.0045935991
1002.78375	0.0045702117
1000.85532	0.0045523974
998.92689	0.0044950088
996.99845	0.0043842555
995.07002	0.0042386581
993.14159	0.0040852702
991.21316	0.0039528348
989.28473	0.0038638960
987.35630	0.0038131531
985.42787	0.0037400394
983.49944	0.0035438680
981.57101	0.0031657673
979.64258	0.0026459796
977.71415	0.0020838936
975.78572	0.0015644372
973.85729	0.0011240761
971.92886	0.0007594590
970.00043	0.0004517379
968.07200	0.0001786758
966.14357	-0.0000782721
964.21514	-0.0003301277
962.28671	-0.0005851979
960.35828	-0.0008421337
958.42985	-0.0010926689
956.50142	-0.0013357822
954.57299	-0.0015698870
952.64456	-0.0017885014
950.71613	-0.0019903602
948.78770	-0.0021764140
946.85927	-0.0023448293
944.93084	-0.0024957811
943.00241	-0.0026327865
941.07398	-0.0027582769
939.14555	-0.0028733423
937.21712	-0.0029790706
935.28869	-0.0030769082
933.36026	-0.0031677852
931.43183	-0.0032542755
929.50340	-0.0033408001
927.57496	-0.0034287455
925.64653	-0.0035143620
923.71810	-0.0035951869
921.78967	-0.0036711197
919.86124	-0.0037371842
917.93281	-0.0037852249
916.00438	-0.0038143753
914.07595	-0.0038265891
912.14752	-0.0038227402
910.21909	-0.0038054970
908.29066	-0.0037761407
906.36223	-0.0037311788
904.43380	-0.0036681422
902.50537	-0.0035939033
900.57694	-0.0035280737
898.64851	-0.0035312062
