3997.63597	-0.0020138596
3995.70754	-0.0019943283
3993.77911	-0.0019859280
3991.85068	-0.0019828875
3989.92225	-0.0019747447
3987.99382	-0.0019632003
3986.06539	-0.0019564487
3984.13696	-0.0019572217
3982.20853	-0.0019593348
3980.28010	-0.0019604687
3978.35167	-0.0019599018
3976.42324	-0.0019576340
3974.49481	-0.0019532533
3972.56638	-0.0019471715
3970.63795	-0.0019439760
3968.70952	-0.0019472745
3966.78109	-0.0019541294
3964.85266	-0.0019613963
3962.92423	-0.0019683025
3960.99580	-0.0019736625
3959.06737	-0.0019760847
3957.13894	-0.0019794346
3955.21051	-0.0019857220
3953.28207	-0.0019905663
3951.35364	-0.0019912363
3949.42521	-0.0019945344
3947.49678	-0.0020082940
3945.56835	-0.0020256604
3943.63992	-0.0020355543
3941.71149	-0.0020450871
3939.78306	-0.0020554957
3937.85463	-0.0020645645
3935.92620	-0.0020765699
3933.99777	-0.0020899663
3932.06934	-0.0021100601
3930.14091	-0.0021365925
3928.21248	-0.0021551384
3926.28405	-0.0021663688
3924.35562	-0.0021855831
3922.42719	-0.0022160257
3920.49876	-0.0022439940
3918.57033	-0.0022707242
3916.64190	-0.0023014185
3914.71347	-0.0023338096
3912.78504	-0.0023606888
3910.85661	-0.0023897805
3908.92818	-0.0024173770
3906.99975	-0.0024376099
3905.07132	-0.0024528999
3903.14289	-0.0024795660
3901.21446	-0.0025146205
3899.28603	-0.0025451430
3897.35760	-0.0025732957
3895.42917	-0.0025946023
3893.50074	-0.0026122539
3891.57231	-0.0026307795
3889.64388	-0.0026595443
3887.71545	-0.0026746721
3885.78701	-0.0026813610
3883.85858	-0.0027077559
3881.93015	-0.0027173255
3880.00172	-0.0027167595
3878.07329	-0.0027291586
3876.14486	-0.0027375445
3874.21643	-0.0027462903
3872.28800	-0.0027574538
3870.35957	-0.0027578140
3868.43114	-0.0027813748
3866.50271	-0.0027940292
3864.57428	-0.0027912001
3862.64585	-0.0027973214
3860.71742	-0.0028017452
3858.78899	-0.0028104896
3856.86056	-0.0028139360
3854.93213	-0.0027900683
3853.00370	-0.0027882678
3851.07527	-0.0028137302
3849.14684	-0.0028155306
3847.21841	-0.0028066318
3845.28998	-0.0027993275
3843.36155	-0.0027901712
3841.43312	-0.0027832782
3839.50469	-0.0027696460
3837.57626	-0.0027590487
3835.64783	-0.0027672795
3833.71940	-0.0027611579
3831.79097	-0.0027470621
3829.86254	-0.0027388821
3827.93411	-0.0027222130
3826.00568	-0.0027053892
3824.07725	-0.0026939670
3822.14882	-0.0026679316
3820.22039	-0.0026574861
3818.29196	-0.0026472977
3816.36352	-0.0026082913
3814.43509	-0.0025937273
3812.50666	-0.0025729355
3810.57823	-0.0025412827
3808.64980	-0.0025076717
3806.72137	-0.0024816249
3804.79294	-0.0024784850
3802.86451	-0.0024400812
3800.93608	-0.0023942085
3799.00765	-0.0023690304
3797.07922	-0.0023242829
3795.15079	-0.0022864835
3793.22236	-0.0022532647
3791.29393	-0.0022177771
3789.36550	-0.0021847589
3787.43707	-0.0021464839
3785.50864	-0.0020992919
3783.58021	-0.0020567840
3781.65178	-0.0020173122
3779.72335	-0.0019731470
3777.79492	-0.0019301629
3775.86649	-0.0018805248
3773.93806	-0.0018283032
3772.00963	-0.0017770035
3770.08120	-0.0017218818
3768.15277	-0.0016691771
3766.22434	-0.0016069752
3764.29591	-0.0015488914
3762.36748	-0.0014943082
3760.43905	-0.0014320813
3758.51062	-0.0013706196
3756.58219	-0.0013124009
3754.65376	-0.0012508191
3752.72533	-0.0011671816
3750.79690	-0.0010866784
3748.86847	-0.0010170069
3746.94003	-0.0009444315
3745.01160	-0.0008324709
3743.08317	-0.0007671517
3741.15474	-0.0007025461
3739.22631	-0.0006077912
3737.29788	-0.0005033456
3735.36945	-0.0004038921
3733.44102	-0.0002973280
3731.51259	-0.0001812157
3729.58416	-0.0000739758
3727.65573	0.0000513608
3725.72730	0.0001878951
3723.79887	0.0003340056
3721.87044	0.0004907127
3719.94201	0.0006506650
3718.01358	0.0008206352
3716.08515	0.0010053312
3714.15672	0.0012193343
3712.22829	0.0014546622
3710.29986	0.0016836729
3708.37143	0.0019252069
3706.44300	0.0021896393
3704.51457	0.0024843274
3702.58614	0.0028121732
3700.65771	0.0031592485
3698.72928	0.0035293838
3696.80085	0.0039339219
3694.87242	0.0043668407
3692.94399	0.0048325695
3691.01556	0.0053416169
3689.08713	0.0059077539
3687.15870	0.0065040849
3685.23027	0.0071457331
3683.30184	0.0078607583
3681.37341	0.0086377449
3679.44497	0.0094729504
3677.51654	0.0103835948
3675.58811	0.0113747492
3673.65968	0.0124114249
3671.73125	0.0135515742
3669.80282	0.0147781158
3667.87439	0.0160617679
3665.94596	0.0174345318
3664.01753	0.0188924260
3662.08910	0.0204302724
3660.16067	0.0220473837
3658.23224	0.0237436946
3656.30381	0.0255170949
3654.37538	0.0273531768
3652.44695	0.0292727258
3650.51852	0.0312685855
3648.59009	0.0333097428
3646.66166	0.0353986993
3644.73323	0.0375501662
3642.80480	0.0397612154
3640.87637	0.0420211628
3638.94794	0.0443341546
3637.01951	0.0467051864
3635.09108	0.0491261296
3633.16265	0.0515800342
3631.23422	0.0540810078
3629.30579	0.0566455983
3627.37736	0.0592345037
3625.44893	0.0618674085
3623.52050	0.0645527169
3621.59207	0.0672842264
3619.66364	0.0700659007
3617.73521	0.0728828385
3615.80678	0.0757410973
3613.87835	0.0786589608
3611.94992	0.0816345513
3610.02148	0.0846676305
3608.09305	0.0877429172
3606.16462	0.0908539221
3604.23619	0.0940222740
3602.30776	0.0972489566
3600.37933	0.1005210876
3598.45090	0.1038384140
3596.52247	0.1072128490
3594.59404	0.1106413975
3592.66561	0.1141139939
3590.73718	0.1176371425
3588.80875	0.1212223768
3586.88032	0.1248566359
3584.95189	0.1285277158
3583.02346	0.1322385371
3581.09503	0.1359925121
3579.16660	0.1397871822
3577.23817	0.1436216384
3575.30974	0.1474969536
3573.38131	0.1514080614
3571.45288	0.1553472131
3569.52445	0.1593150496
3567.59602	0.1633149236
3565.66759	0.1673440933
3563.73916	0.1714084595
3561.81073	0.1754992753
3559.88230	0.1796008497
3557.95387	0.1837137043
3556.02544	0.1878505647
3554.09701	0.1920118630
3552.16858	0.1961945146
3550.24015	0.2003943920
3548.31172	0.2046038508
3546.38329	0.2088128775
3544.45486	0.2130267918
3542.52643	0.2172577828
3540.59799	0.2215053588
3538.66956	0.2257634997
3536.74113	0.2300248891
3534.81270	0.2342861593
3532.88427	0.2385558337
3530.95584	0.2428380698
3529.02741	0.2471206933
3527.09898	0.2513911724
3525.17055	0.2556535304
3523.24212	0.2599129975
3521.31369	0.2641698420
3519.38526	0.2684254348
3517.45683	0.2726797760
3515.52840	0.2769307494
3513.59997	0.2811789811
3511.67154	0.2854261398
3509.74311	0.2896683812
3507.81468	0.2938960195
3505.88625	0.2981078923
3503.95782	0.3023090363
3502.02939	0.3065057993
3500.10096	0.3106986284
3498.17253	0.3148809373
3496.24410	0.3190575540
3494.31567	0.3232314289
3492.38724	0.3273916841
3490.45881	0.3315435350
3488.53038	0.3356927335
3486.60195	0.3398279846
3484.67352	0.3439494073
3482.74509	0.3480690420
3480.81666	0.3521870077
3478.88823	0.3562940359
3476.95980	0.3603881598
3475.03137	0.3644725680
3473.10293	0.3685429692
3471.17450	0.3725980818
3469.24607	0.3766508698
3467.31764	0.3807128072
3465.38921	0.3847770393
3463.46078	0.3888340592
3461.53235	0.3928781450
3459.60392	0.3969086409
3457.67549	0.4009308815
3455.74706	0.4049491584
3453.81863	0.4089668393
3451.89020	0.4129835367
3449.96177	0.4169855118
3448.03334	0.4209694266
3446.10491	0.4249469638
3444.17648	0.4289204180
3442.24805	0.4328787923
3440.31962	0.4368141294
3438.39119	0.4407267869
3436.46276	0.4446156919
3434.53433	0.4484881461
3432.60590	0.4523572624
3430.67747	0.4562183619
3428.74904	0.4600614905
3426.82061	0.4638844132
3424.89218	0.4676802158
3422.96375	0.4714460373
3421.03532	0.4751833975
3419.10689	0.4788873494
3417.17846	0.4825615287
3415.25003	0.4862156510
3413.32160	0.4898527563
3411.39317	0.4934574068
3409.46474	0.4970082939
3407.53631	0.5005049706
3405.60788	0.5039595366
3403.67944	0.5073679686
3401.75101	0.5107331276
3399.82258	0.5140728354
3397.89415	0.5173772573
3395.96572	0.5206137300
3394.03729	0.5237790942
3392.10886	0.5268924832
3390.18043	0.5299711227
3388.25200	0.5330033302
3386.32357	0.5359571576
3384.39514	0.5388343930
3382.46671	0.5416697264
3380.53828	0.5444602370
3378.60985	0.5471723676
3376.68142	0.5498054028
3374.75299	0.5523744226
3372.82456	0.5548593402
3370.89613	0.5572491288
3368.96770	0.5595923662
3367.03927	0.5619215965
3365.11084	0.5641983151
3363.18241	0.5663812757
3361.25398	0.5684778094
3359.32555	0.5705146790
3357.39712	0.5724984407
3355.46869	0.5744135380
3353.54026	0.5762616992
3351.61183	0.5780582428
3349.68340	0.5798001289
3347.75497	0.5814760327
3345.82654	0.5830825567
3343.89811	0.5846396089
3341.96968	0.5861678720
3340.04125	0.5876504183
3338.11282	0.5890713334
3336.18439	0.5904455185
3334.25595	0.5917763710
3332.32752	0.5930521488
3330.39909	0.5942878723
3328.47066	0.5954942107
3326.54223	0.5966477990
3324.61380	0.5977466702
3322.68537	0.5988224149
3320.75694	0.5998798609
3318.82851	0.6008908749
3316.90008	0.6018536091
3314.97165	0.6027985215
3313.04322	0.6037320495
3311.11479	0.6046308279
3309.18636	0.6054702997
3307.25793	0.6062492728
3305.32950	0.6070095301
3303.40107	0.6077820063
3301.47264	0.6085368991
3299.54421	0.6092477441
3297.61578	0.6099305749
3295.68735	0.6105862260
3293.75892	0.6111974120
3291.83049	0.6117655039
3289.90206	0.6123055816
3287.97363	0.6128252745
3286.04520	0.6133040190
3284.11677	0.6137214303
3282.18834	0.6140909195
3280.25991	0.6144189239
3278.33148	0.6146929860
3276.40305	0.6149144769
3274.47462	0.6150832176
3272.54619	0.6151951551
3270.61776	0.6152599454
3268.68933	0.6152766943
3266.76089	0.6152300239
3264.83246	0.6151190400
3262.90403	0.6149596572
3260.97560	0.6147398949
3259.04717	0.6144229770
3257.11874	0.6140094995
3255.19031	0.6135343313
3253.26188	0.6130067110
3251.33345	0.6124078035
3249.40502	0.6117187142
3247.47659	0.6109304428
3245.54816	0.6100465655
3243.61973	0.6090773344
3241.69130	0.6080358624
3239.76287	0.6069201231
3237.83444	0.6057040095
3235.90601	0.6043665409
3233.97758	0.6029238701
3232.04915	0.6014124155
3230.12072	0.5998369455
3228.19229	0.5981701016
3226.26386	0.5963956714
3224.33543	0.5945192575
3222.40700	0.5925490260
3220.47857	0.5904845595
3218.55014	0.5883201361
3216.62171	0.5860491991
3214.69328	0.5836787820
3212.76485	0.5812253952
3210.83642	0.5786831379
3208.90799	0.5760343075
3206.97956	0.5732782483
3205.05113	0.5704275370
3203.12270	0.5674910545
3201.19427	0.5644695759
3199.26584	0.5613529086
3197.33740	0.5581402779
3195.40897	0.5548429489
3193.48054	0.5514606833
3191.55211	0.5479986072
3189.62368	0.5444589257
3187.69525	0.5408295989
3185.76682	0.5371205211
3183.83839	0.5333557129
3181.90996	0.5295301676
3179.98153	0.5256199837
3178.05310	0.5216255188
3176.12467	0.5175685883
3174.19624	0.5134609342
3172.26781	0.5092947483
3170.33938	0.5050615072
3168.41095	0.5007710457
3166.48252	0.4964343607
3164.55409	0.4920510948
3162.62566	0.4876240194
3160.69723	0.4831530452
3158.76880	0.4786314666
3156.84037	0.4740519226
3154.91194	0.4694159925
3152.98351	0.4647490084
3151.05508	0.4600792527
3149.12665	0.4553922713
3147.19822	0.4506561756
3145.26979	0.4458755255
3143.34136	0.4410708845
3141.41293	0.4362511933
3139.48450	0.4314199686
3137.55607	0.4265734255
3135.62764	0.4217085838
3133.69921	0.4168331921
3131.77078	0.4119566679
3129.84235	0.4070785940
3127.91391	0.4021902084
3125.98548	0.3972889483
3124.05705	0.3923838139
3122.12862	0.3874785900
3120.20019	0.3825776875
3118.27176	0.3776916564
3116.34333	0.3728232682
3114.41490	0.3679693341
3112.48647	0.3631303012
3110.55804	0.3583047390
3108.62961	0.3534863293
3106.70118	0.3486776352
3104.77275	0.3438879550
3102.84432	0.3391193449
3100.91589	0.3343707621
3098.98746	0.3296518028
3097.05903	0.3249674439
3095.13060	0.3203043342
3093.20217	0.3156567514
3091.27374	0.3110371828
3089.34531	0.3064597249
3087.41688	0.3019207120
3085.48845	0.2974060178
3083.56002	0.2929172218
3081.63159	0.2884688079
3079.70316	0.2840650380
3077.77473	0.2797071636
3075.84630	0.2753908038
3073.91787	0.2711137533
3071.98944	0.2668800056
3070.06101	0.2626911104
3068.13258	0.2585433125
3066.20415	0.2544336915
3064.27572	0.2503663301
3062.34729	0.2463468462
3060.41885	0.2423818558
3058.49042	0.2384730726
3056.56199	0.2346164584
3054.63356	0.2308069021
3052.70513	0.2270448059
3050.77670	0.2233341932
3048.84827	0.2196781486
3046.91984	0.2160796672
3044.99141	0.2125394195
3043.06298	0.2090556473
3041.13455	0.2056307495
3039.20612	0.2022652179
3037.27769	0.1989525706
3035.34926	0.1956965327
3033.42083	0.1925056875
3031.49240	0.1893773079
3029.56397	0.1863059253
3027.63554	0.1832997650
3025.70711	0.1803669780
3023.77868	0.1775041521
3021.85025	0.1747103184
3019.92182	0.1719894111
3017.99339	0.1693392694
3016.06496	0.1667623520
3014.13653	0.1642740965
3012.20810	0.1618852615
3010.27967	0.1595957726
3008.35124	0.1574104875
3006.42281	0.1553422511
3004.49438	0.1534037292
3002.56595	0.1515999585
3000.63752	0.1499373764
2998.70909	0.1484358758
2996.78066	0.1471044570
2994.85223	0.1459593177
2992.92380	0.1450112313
2990.99536	0.1442620754
2989.06693	0.1437101364
2987.13850	0.1433573216
2985.21007	0.1432041675
2983.28164	0.1432350874
2981.35321	0.1434224248
2979.42478	0.1437440515
2977.49635	0.1441777200
2975.56792	0.1447040141
2973.63949	0.1453109980
2971.71106	0.1459870785
2969.78263	0.1467345655
2967.85420	0.1475874782
2965.92577	0.1485966146
2963.99734	0.1498068422
2962.06891	0.1512532532
2960.14048	0.1529680192
2958.21205	0.1549708992
2956.28362	0.1572580487
2954.35519	0.1598112583
2952.42676	0.1625967324
2950.49833	0.1655613482
2948.56990	0.1686366796
2946.64147	0.1717430502
2944.71304	0.1747954786
2942.78461	0.1777146906
2940.85618	0.1804360896
2938.92775	0.1829107255
2936.99932	0.1851009727
2935.07089	0.1869871020
2933.14246	0.1885618418
2931.21403	0.1898258477
2929.28560	0.1907904893
2927.35717	0.1914642155
2925.42874	0.1918593198
2923.50031	0.1920060217
2921.57187	0.1919365078
2919.64344	0.1916801333
2917.71501	0.1912861317
2915.78658	0.1908270270
2913.85815	0.1903649718
2911.92972	0.1899159998
2910.00129	0.1894637048
2908.07286	0.1889959425
2906.14443	0.1885204315
2904.21600	0.1880660504
2902.28757	0.1876597553
2900.35914	0.1873063892
2898.43071	0.1869981438
2896.50228	0.1867188811
2894.57385	0.1864375323
2892.64542	0.1861112565
2890.71699	0.1856948733
2888.78856	0.1851469278
2886.86013	0.1844277233
2884.93170	0.1835019886
2883.00327	0.1823538989
2881.07484	0.1809975654
2879.14641	0.1794659048
2877.21798	0.1777997017
2875.28955	0.1760400683
2873.36112	0.1742126495
2871.43269	0.1723227203
2869.50426	0.1703645438
2867.57583	0.1683262885
2865.64740	0.1661944985
2863.71897	0.1639585048
2861.79054	0.1616083235
2859.86211	0.1591432095
2857.93368	0.1565808803
2856.00525	0.1539495885
2854.07681	0.1512694210
2852.14838	0.1485562027
2850.21995	0.1458469629
2848.29152	0.1431909204
2846.36309	0.1406038851
2844.43466	0.1380656213
2842.50623	0.1355605423
2840.57780	0.1330942214
2838.64937	0.1306833774
2836.72094	0.1283417493
2834.79251	0.1260773540
2832.86408	0.1238969564
2830.93565	0.1218039989
2829.00722	0.1197945476
2827.07879	0.1178617105
2825.15036	0.1160013080
2823.22193	0.1142139211
2821.29350	0.1124962121
2819.36507	0.1108386517
2817.43664	0.1092356294
2815.50821	0.1076881886
2813.57978	0.1061973125
2811.65135	0.1047594100
2809.72292	0.1033670381
2807.79449	0.1020127758
2805.86606	0.1006932035
2803.93763	0.0994063616
2802.00920	0.0981512964
2800.08077	0.0969279334
2798.15234	0.0957329795
2796.22391	0.0945630968
2794.29548	0.0934177637
2792.36705	0.0922974050
2790.43862	0.0911997333
2788.51019	0.0901216418
2786.58176	0.0890658945
2784.65332	0.0880403817
2782.72489	0.0870463550
2780.79646	0.0860780105
2778.86803	0.0851335526
2776.93960	0.0842168182
2775.01117	0.0833278224
2773.08274	0.0824649036
2771.15431	0.0816316456
2769.22588	0.0808307976
2767.29745	0.0800603330
2765.36902	0.0793186724
2763.44059	0.0786061287
2761.51216	0.0779230967
2759.58373	0.0772711933
2757.65530	0.0766524523
2755.72687	0.0760659799
2753.79844	0.0755150765
2751.87001	0.0750023425
2749.94158	0.0745204464
2748.01315	0.0740639269
2746.08472	0.0736364648
2744.15629	0.0732388645
2742.22786	0.0728664622
2740.29943	0.0725143477
2738.37100	0.0721793398
2736.44257	0.0718579888
2734.51414	0.0715460628
2732.58571	0.0712392777
2730.65728	0.0709337443
2728.72885	0.0706300065
2726.80042	0.0703275725
2724.87199	0.0700185448
2722.94356	0.0696956292
2721.01513	0.0693600476
2719.08670	0.0690147132
2717.15827	0.0686576739
2715.22983	0.0682850257
2713.30140	0.0678929910
2711.37297	0.0674803928
2709.44454	0.0670476928
2707.51611	0.0665961206
2705.58768	0.0661269575
2703.65925	0.0656385496
2701.73082	0.0651285201
2699.80239	0.0645932034
2697.87396	0.0640301332
2695.94553	0.0634459183
2694.01710	0.0628450513
2692.08867	0.0622234158
2690.16024	0.0615822040
2688.23181	0.0609258860
2686.30338	0.0602538697
2684.37495	0.0595668331
2682.44652	0.0588669740
2680.51809	0.0581526756
2678.58966	0.0574267879
2676.66123	0.0566967130
2674.73280	0.0559610911
2672.80437	0.0552116893
2670.87594	0.0544485562
2668.94751	0.0536818989
2667.01908	0.0529176444
2665.09065	0.0521492772
2663.16222	0.0513640232
2661.23379	0.0505580567
2659.30536	0.0497352369
2657.37693	0.0488985032
2655.44850	0.0480516106
2653.52007	0.0472005941
2651.59164	0.0463517308
2649.66321	0.0455079749
2647.73477	0.0446703024
2645.80634	0.0438435450
2643.87791	0.0430286527
2641.94948	0.0422246680
2640.02105	0.0414352156
2638.09262	0.0406662673
2636.16419	0.0399208702
2634.23576	0.0391962416
2632.30733	0.0384893641
2630.37890	0.0377988033
2628.45047	0.0371225029
2626.52204	0.0364649631
2624.59361	0.0358339176
2622.66518	0.0352235474
2620.73675	0.0346250236
2618.80832	0.0340452120
2616.87989	0.0334938280
2614.95146	0.0329700634
2613.02303	0.0324672125
2611.09460	0.0319817401
2609.16617	0.0315186083
2607.23774	0.0310798232
2605.30931	0.0306564830
2603.38088	0.0302460436
2601.45245	0.0298569538
2599.52402	0.0294903480
2597.59559	0.0291416571
2595.66716	0.0288112536
2593.73873	0.0284981821
2591.81030	0.0281985682
2589.88187	0.0279092360
2587.95344	0.0276303589
2586.02501	0.0273652524
2584.09658	0.0271140561
2582.16815	0.0268763881
2580.23972	0.0266469698
2578.31128	0.0264169313
2576.38285	0.0261855274
2574.45442	0.0259673018
2572.52599	0.0257706661
2570.59756	0.0255868025
2568.66913	0.0254054610
2566.74070	0.0252227951
2564.81227	0.0250456911
2562.88384	0.0248800609
2560.95541	0.0247237030
2559.02698	0.0245781392
2557.09855	0.0244355798
2555.17012	0.0242888257
2553.24169	0.0241524372
2551.31326	0.0240360368
2549.38483	0.0239276811
2547.45640	0.0238145404
2545.52797	0.0236960705
2543.59954	0.0235796552
2541.67111	0.0234670695
2539.74268	0.0233559590
2537.81425	0.0232504774
2535.88582	0.0231499076
2533.95739	0.0230460856
2532.02896	0.0229410883
2530.10053	0.0228359513
2528.17210	0.0227130298
2526.24367	0.0225698836
2524.31524	0.0224287454
2522.38681	0.0223009512
2520.45838	0.0221803878
2518.52995	0.0220552273
2516.60152	0.0219228603
2514.67309	0.0217949972
2512.74466	0.0216743834
2510.81623	0.0215501301
2508.88779	0.0214267820
2506.95936	0.0213238616
2505.03093	0.0212393403
2503.10250	0.0211462732
2501.17407	0.0210298598
2499.24564	0.0209065247
2497.31721	0.0207923204
2495.38878	0.0206785556
2493.46035	0.0205545593
2491.53192	0.0204185247
2489.60349	0.0202738531
2487.67506	0.0201338120
2485.74663	0.0200085621
2483.81820	0.0198802594
2481.88977	0.0197238754
2479.96134	0.0195446387
2478.03291	0.0193553008
2476.10448	0.0191566013
2474.17605	0.0189583190
2472.24762	0.0187662635
2470.31919	0.0185634308
2468.39076	0.0183414649
2466.46233	0.0181209370
2464.53390	0.0179083161
2462.60547	0.0176876578
2460.67704	0.0174646322
2458.74861	0.0172519553
2456.82018	0.0170436893
2454.89175	0.0168304387
2452.96332	0.0166111868
2451.03489	0.0163988210
2449.10646	0.0162037537
2447.17803	0.0160204042
2445.24960	0.0158430114
2443.32117	0.0156653170
2441.39273	0.0154785197
2439.46430	0.0152894696
2437.53587	0.0151128853
2435.60744	0.0149513753
2433.67901	0.0147937024
2431.75058	0.0146338651
2429.82215	0.0144789834
2427.89372	0.0143351536
2425.96529	0.0141984588
2424.03686	0.0140581438
2422.10843	0.0139050977
2420.18000	0.0137465214
2418.25157	0.0135903005
2416.32314	0.0134375263
2414.39471	0.0132928388
2412.46628	0.0131598609
2410.53785	0.0130391661
2408.60942	0.0129271196
2406.68099	0.0128136352
2404.75256	0.0127022592
2402.82413	0.0126079135
2400.89570	0.0125346361
2398.96727	0.0124761034
2397.03884	0.0124265552
2395.11041	0.0123824989
2393.18198	0.0123460907
2391.25355	0.0123212440
2389.32512	0.0123095000
2387.39669	0.0123072360
2385.46826	0.0123061175
2383.53983	0.0122995665
2381.61140	0.0122934952
2379.68297	0.0122988215
2377.75454	0.0123142134
2375.82611	0.0123307509
2373.89768	0.0123450793
2371.96924	0.0123597803
2370.04081	0.0123776784
2368.11238	0.0123977615
2366.18395	0.0124197630
2364.25552	0.0124417385
2362.32709	0.0124588674
2360.39866	0.0124692302
2358.47023	0.0124730933
2356.54180	0.0124704288
2354.61337	0.0124636889
2352.68494	0.0124538587
2350.75651	0.0124404337
2348.82808	0.0124275936
2346.89965	0.0124198422
2344.97122	0.0124177383
2343.04279	0.0124233589
2341.11436	0.0124268215
2339.18593	0.0124053527
2337.25750	0.0123599665
2335.32907	0.0123182610
2333.40064	0.0122965844
2331.47221	0.0122902198
2329.54378	0.0122930696
2327.61535	0.0123101389
2325.68692	0.0123339472
2323.75849	0.0123254517
2321.83006	0.0122614345
2319.90163	0.0121761030
2317.97320	0.0121130403
2316.04477	0.0120778522
2314.11634	0.0120568266
2312.18791	0.0120425606
2310.25948	0.0120372120
2308.33105	0.0120339384
2306.40262	0.0120252091
2304.47419	0.0120269386
2302.54575	0.0120521151
2300.61732	0.0120883388
2298.68889	0.0121274404
2296.76046	0.0121835303
2294.83203	0.0122609818
2292.90360	0.0123443604
2290.97517	0.0124373166
2289.04674	0.0125567243
2287.11831	0.0126916245
2285.18988	0.0128246993
2283.26145	0.0129507212
2281.33302	0.0130704837
2279.40459	0.0131963901
2277.47616	0.0133293532
2275.54773	0.0134590194
2273.61930	0.0135917692
2271.69087	0.0137281399
2269.76244	0.0138541572
2267.83401	0.0139670316
2265.90558	0.0140632773
2263.97715	0.0141351810
2262.04872	0.0141991004
2260.12029	0.0142804431
2258.19186	0.0143898437
2256.26343	0.0145089598
2254.33500	0.0146046029
2252.40657	0.0146933589
2250.47814	0.0148170581
2248.54971	0.0149595477
2246.62128	0.0150876641
2244.69285	0.0152086075
2242.76442	0.0153492680
2240.83599	0.0154916905
2238.90756	0.0155537166
2236.97913	0.0155446753
2235.05069	0.0155779719
2233.12226	0.0156669542
2231.19383	0.0157500487
2229.26540	0.0158409979
2227.33697	0.0159482136
2225.40854	0.0160322767
2223.48011	0.0160892494
2221.55168	0.0160851665
2219.62325	0.0160236005
2217.69482	0.0160321686
2215.76639	0.0161167309
2213.83796	0.0161589645
2211.90953	0.0161832515
2209.98110	0.0162316728
2208.05267	0.0162289850
2206.12424	0.0161903724
2204.19581	0.0162115730
2202.26738	0.0163255185
2200.33895	0.0165442228
2198.41052	0.0167702474
2196.48209	0.0168796573
2194.55366	0.0169579517
2192.62523	0.0171442013
2190.69680	0.0173656084
2188.76837	0.0175108500
2186.83994	0.0176015496
2184.91151	0.0176343564
2182.98308	0.0174787249
2181.05465	0.0170862284
2179.12622	0.0166218653
2177.19779	0.0161899161
2175.26936	0.0157408156
2173.34093	0.0152191976
2171.41250	0.0145548647
2169.48407	0.0137196435
2167.55564	0.0127153462
2165.62720	0.0115342950
2163.69877	0.0101840822
2161.77034	0.0087124277
2159.84191	0.0073299273
2157.91348	0.0065746433
2155.98505	0.0068867090
2154.05662	0.0079110805
2152.12819	0.0089524603
2150.19976	0.0096786479
2148.27133	0.0102246823
2146.34290	0.0108255949
2144.41447	0.0114814518
2142.48604	0.0121411765
2140.55761	0.0128257927
2138.62918	0.0135119166
2136.70075	0.0141391121
2134.77232	0.0146910287
2132.84389	0.0152158998
2130.91546	0.0157531090
2128.98703	0.0162472054
2127.05860	0.0166183412
2125.13017	0.0168443508
2123.20174	0.0169773046
2121.27331	0.0170922596
2119.34488	0.0171952341
2117.41645	0.0172351748
2115.48802	0.0171912741
2113.55959	0.0170704778
2111.63116	0.0168899111
2109.70273	0.0166932251
2107.77430	0.0165234637
2105.84587	0.0163731482
2103.91744	0.0161980037
2101.98901	0.0159841198
2100.06058	0.0157677103
2098.13215	0.0154036302
2096.20371	0.0150725758
2094.27528	0.0150291882
2092.34685	0.0151925227
2090.41842	0.0152669735
2088.48999	0.0151020037
2086.56156	0.0147716878
2084.63313	0.0144388396
2082.70470	0.0139814401
2080.77627	0.0134266857
2078.84784	0.0128357373
2076.91941	0.0122528076
2074.99098	0.0116771208
2073.06255	0.0111011602
2071.13412	0.0105895652
2069.20569	0.0101810880
2067.27726	0.0098537244
2065.34883	0.0095917843
2063.42040	0.0093692783
2061.49197	0.0091610570
2059.56354	0.0089566885
2057.63511	0.0087224636
2055.70668	0.0083815772
2053.77825	0.0078196935
2051.84982	0.0067149266
2049.92139	0.0047662193
2047.99296	0.0025129663
2046.06453	0.0008978763
2044.13610	-0.0000416226
2042.20767	-0.0007914925
2040.27924	-0.0015578675
2038.35081	-0.0024959869
2036.42238	-0.0038589693
2034.49395	-0.0054397914
2032.56552	-0.0065326458
2030.63709	-0.0068671727
2028.70865	-0.0068069850
2026.78022	-0.0067579523
2024.85179	-0.0067955172
2022.92336	-0.0067562698
2020.99493	-0.0066354480
2019.06650	-0.0066030188
2017.13807	-0.0067043765
2015.20964	-0.0067962818
2013.28121	-0.0068586115
2011.35278	-0.0071688006
2009.42435	-0.0076651312
2007.49592	-0.0074961716
2005.56749	-0.0061302301
2003.63906	-0.0042038159
2001.71063	-0.0025216723
1999.78220	-0.0013904369
1997.85377	-0.0008334010
1995.92534	-0.0006810949
1993.99691	-0.0007492181
1992.06848	-0.0009851889
1990.14005	-0.0013535883
1988.21162	-0.0017728787
1986.28319	-0.0022700033
1984.35476	-0.0030153189
1982.42633	-0.0043945620
1980.49790	-0.0068075457
1978.56947	-0.0096923951
1976.64104	-0.0112776384
1974.71261	-0.0107881492
1972.78418	-0.0093228975
1970.85575	-0.0077794632
1968.92732	-0.0062668598
1966.99889	-0.0048634065
1965.07046	-0.0036782552
1963.14203	-0.0026533182
1961.21360	-0.0016009402
1959.28516	-0.0003266616
1957.35673	0.0011132279
1955.42830	0.0024151073
1953.49987	0.0034243031
1951.57144	0.0041799522
1949.64301	0.0047326162
1947.71458	0.0051848264
1945.78615	0.0056034969
1943.85772	0.0059401621
1941.92929	0.0062103863
1940.00086	0.0064926022
1938.07243	0.0067895683
1936.14400	0.0070472718
1934.21557	0.0072529553
1932.28714	0.0074371952
1930.35871	0.0076163234
1928.43028	0.0077913613
1926.50185	0.0079726921
1924.57342	0.0081803706
1922.64499	0.0084038517
1920.71656	0.0085485019
1918.78813	0.0085452553
1916.85970	0.0084701525
1914.93127	0.0084476639
1913.00284	0.0084827170
1911.07441	0.0085274614
1909.14598	0.0085786795
1907.21755	0.0086352630
1905.28912	0.0086936764
1903.36069	0.0087520191
1901.43226	0.0087962896
1899.50383	0.0088269059
1897.57540	0.0088676177
1895.64697	0.0089261411
1893.71854	0.0089725433
1891.79011	0.0089979135
1889.86167	0.0090386141
1887.93324	0.0091040870
1886.00481	0.0091651026
1884.07638	0.0092084631
1882.14795	0.0092534674
1880.21952	0.0093145827
1878.29109	0.0093852282
1876.36266	0.0094489018
1874.43423	0.0094945133
1872.50580	0.0095313182
1870.57737	0.0095757209
1868.64894	0.0096284645
1866.72051	0.0096821943
1864.79208	0.0097260037
1862.86365	0.0097555742
1860.93522	0.0097941486
1859.00679	0.0098507321
1857.07836	0.0099220481
1855.14993	0.0100131640
1853.22150	0.0101176249
1851.29307	0.0102263521
1849.36464	0.0103394007
1847.43621	0.0104553960
1845.50778	0.0105945254
1843.57935	0.0107499110
1841.65092	0.0109019820
1839.72249	0.0110805538
1837.79406	0.0112855798
1835.86563	0.0114930142
1833.93720	0.0116799399
1832.00877	0.0118379761
1830.08034	0.0119737433
1828.15191	0.0120793432
1826.22348	0.0121498546
1824.29505	0.0121650286
1822.36661	0.0121398186
1820.43818	0.0121783661
1818.50975	0.0124582015
1816.58132	0.0130484225
1814.65289	0.0137497010
1812.72446	0.0143166129
1810.79603	0.0146997580
1808.86760	0.0149725694
1806.93917	0.0151969995
1805.01074	0.0154008940
1803.08231	0.0156062264
1801.15388	0.0158242453
1799.22545	0.0160520729
1797.29702	0.0162899084
1795.36859	0.0165405925
1793.44016	0.0168098807
1791.51173	0.0170846675
1789.58330	0.0173584409
1787.65487	0.0176437385
1785.72644	0.0179372635
1783.79801	0.0182294454
1781.86958	0.0185248796
1779.94115	0.0188354887
1778.01272	0.0191842243
1776.08429	0.0195976067
1774.15586	0.0200617760
1772.22743	0.0205219369
1770.29900	0.0209472161
1768.37057	0.0213805251
1766.44214	0.0218129884
1764.51371	0.0222555827
1762.58528	0.0227233395
1760.65685	0.0232016500
1758.72842	0.0237044357
1756.79999	0.0242395271
1754.87156	0.0247874185
1752.94312	0.0253722798
1751.01469	0.0259946194
1749.08626	0.0266383011
1747.15783	0.0273262709
1745.22940	0.0280573294
1743.30097	0.0288335774
1741.37254	0.0296679176
1739.44411	0.0305618215
1737.51568	0.0315005146
1735.58725	0.0325204656
1733.65882	0.0336007923
1731.73039	0.0347124971
1729.80196	0.0359051041
1727.87353	0.0371692814
1725.94510	0.0385036506
1724.01667	0.0399160758
1722.08824	0.0414025821
1720.15981	0.0429868661
1718.23138	0.0447010025
1716.30295	0.0465203114
1714.37452	0.0484623611
1712.44609	0.0505496822
1710.51766	0.0527863167
1708.58923	0.0551775917
1706.66080	0.0577340499
1704.73237	0.0604529269
1702.80394	0.0633501559
1700.87551	0.0664678887
1698.94708	0.0697512776
1697.01865	0.0732566416
1695.09022	0.0769817531
1693.16179	0.0808764473
1691.23336	0.0849872380
1689.30493	0.0892897695
1687.37650	0.0937779620
1685.44807	0.0984916389
1683.51963	0.1033677608
1681.59120	0.1083700508
1679.66277	0.1135146990
1677.73434	0.1187663451
1675.80591	0.1241179928
1673.87748	0.1295117885
1671.94905	0.1349244267
1670.02062	0.1403373927
1668.09219	0.1456844211
1666.16376	0.1509304196
1664.23533	0.1560592800
1662.30690	0.1610146314
1660.37847	0.1657390594
1658.45004	0.1701923609
1656.52161	0.1743246764
1654.59318	0.1781484187
1652.66475	0.1815939248
1650.73632	0.1845435500
1648.80789	0.1870336533
1646.87946	0.1890242994
1644.95103	0.1904335171
1643.02260	0.1912398934
1641.09417	0.1914239973
1639.16574	0.1909465492
1637.23731	0.1898099482
1635.30888	0.1880021542
1633.38045	0.1855156422
1631.45202	0.1824228466
1629.52359	0.1787564307
1627.59516	0.1745564491
1625.66673	0.1698938012
1623.73830	0.1648588926
1621.80987	0.1595264375
1619.88144	0.1540154219
1617.95301	0.1484407187
1616.02457	0.1428364962
1614.09614	0.1372831762
1612.16771	0.1318990737
1610.23928	0.1267076880
1608.31085	0.1217460260
1606.38242	0.1170482561
1604.45399	0.1126287431
1602.52556	0.1084971130
1600.59713	0.1046541259
1598.66870	0.1010938883
1596.74027	0.0978053883
1594.81184	0.0947681218
1592.88341	0.0919624642
1590.95498	0.0893810615
1589.02655	0.0870219022
1587.09812	0.0849015489
1585.16969	0.0830456018
1583.24126	0.0814468488
1581.31283	0.0800469518
1579.38440	0.0787731856
1577.45597	0.0776070356
1575.52754	0.0765189976
1573.59911	0.0755006596
1571.67068	0.0746054873
1569.74225	0.0738062486
1567.81382	0.0730715096
1565.88539	0.0724222213
1563.95696	0.0718488544
1562.02853	0.0713480562
1560.10010	0.0709405392
1558.17167	0.0705684274
1556.24324	0.0702353641
1554.31481	0.0699947923
1552.38638	0.0698103458
1550.45795	0.0696891248
1548.52952	0.0696225762
1546.60108	0.0696094185
1544.67265	0.0696450323
1542.74422	0.0697257817
1540.81579	0.0698661655
1538.88736	0.0700458586
1536.95893	0.0702625662
1535.03050	0.0705701932
1533.10207	0.0709281936
1531.17364	0.0713077560
1529.24521	0.0717409924
1527.31678	0.0722342953
1525.38835	0.0727834105
1523.45992	0.0734016597
1521.53149	0.0741114467
1519.60306	0.0748828650
1517.67463	0.0757554621
1515.74620	0.0767390877
1513.81777	0.0778390765
1511.88934	0.0790750012
1509.96091	0.0804576799
1508.03248	0.0820328742
1506.10405	0.0837911144
1504.17562	0.0857046247
1502.24719	0.0878310651
1500.31876	0.0901831910
1498.39033	0.0927687064
1496.46190	0.0956058279
1494.53347	0.0986881927
1492.60504	0.1020484641
1490.67661	0.1057147905
1488.74818	0.1096858978
1486.81975	0.1139859855
1484.89132	0.1186399162
1482.96289	0.1236840114
1481.03446	0.1291526109
1479.10603	0.1350748688
1477.17759	0.1414650530
1475.24916	0.1482925415
1473.32073	0.1555006057
1471.39230	0.1629551202
1469.46387	0.1704681814
1467.53544	0.1778364182
1465.60701	0.1848624349
1463.67858	0.1913727522
1461.75015	0.1972588599
1459.82172	0.2024648637
1457.89329	0.2069466710
1455.96486	0.2106215507
1454.03643	0.2135089189
1452.10800	0.2157753259
1450.17957	0.2176234871
1448.25114	0.2193023413
1446.32271	0.2210181504
1444.39428	0.2229076326
1442.46585	0.2250053138
1440.53742	0.2272619903
1438.60899	0.2296054214
1436.68056	0.2319367826
1434.75213	0.2341355383
1432.82370	0.2361553609
1430.89527	0.2379400581
1428.96684	0.2394411564
1427.03841	0.2406388968
1425.10998	0.2415158004
1423.18155	0.2420395315
1421.25312	0.2421918660
1419.32469	0.2419514954
1417.39626	0.2412827909
1415.46783	0.2402106225
1413.53940	0.2387428880
1411.61097	0.2368871421
1409.68253	0.2346696854
1407.75410	0.2321569622
1405.82567	0.2294558585
1403.89724	0.2266840339
1401.96881	0.2239920646
1400.04038	0.2215714157
1398.11195	0.2196403295
1396.18352	0.2184648514
1394.25509	0.2182758451
1392.32666	0.2191890031
1390.39823	0.2211940140
1388.46980	0.2241312116
1386.54137	0.2278137803
1384.61294	0.2321449518
1382.68451	0.2370703816
1380.75608	0.2424884290
1378.82765	0.2482692599
1376.89922	0.2542534769
1374.97079	0.2602550089
1373.04236	0.2660672069
1371.11393	0.2715112269
1369.18550	0.2764531374
1367.25707	0.2807641327
1365.32864	0.2843352556
1363.40021	0.2870790064
1361.47178	0.2889109850
1359.54335	0.2897942662
1357.61492	0.2897458076
1355.68649	0.2888144851
1353.75806	0.2871010602
1351.82963	0.2847547531
1349.90120	0.2819520235
1347.97277	0.2788849175
1346.04434	0.2757325172
1344.11591	0.2726397514
1342.18748	0.2697082162
1340.25904	0.2669784725
1338.33061	0.2644450963
1336.40218	0.2620965540
1334.47375	0.2599319816
1332.54532	0.2579932213
1330.61689	0.2563531399
1328.68846	0.2550679743
1326.76003	0.2541895211
1324.83160	0.2537599504
1322.90317	0.2537305653
1320.97474	0.2539092004
1319.04631	0.2539649010
1317.11788	0.2535125911
1315.18945	0.2522416711
1313.26102	0.2499848455
1311.33259	0.2467357963
1309.40416	0.2426294684
1307.47573	0.2379013747
1305.54730	0.2328765839
1303.61887	0.2279362231
1301.69044	0.2234471142
1299.76201	0.2197135687
1297.83358	0.2169307023
1295.90515	0.2151595950
1293.97672	0.2143434733
1292.04829	0.2143169791
1290.11986	0.2148417979
1288.19143	0.2156612724
1286.26300	0.2165308446
1284.33457	0.2172539830
1282.40614	0.2177124619
1280.47771	0.2178757340
1278.54928	0.2178115696
1276.62085	0.2176598608
1274.69242	0.2175924778
1272.76399	0.2177759707
1270.83555	0.2183174789
1268.90712	0.2192241251
1266.97869	0.2204186916
1265.05026	0.2217633575
1263.12183	0.2230824828
1261.19340	0.2241975814
1259.26497	0.2249536514
1257.33654	0.2252371460
1255.40811	0.2249815911
1253.47968	0.2241610140
1251.55125	0.2227886319
1249.62282	0.2209076285
1247.69439	0.2185821980
1245.76596	0.2159256488
1243.83753	0.2131164223
1241.90910	0.2103682756
1239.98067	0.2078965306
1238.05224	0.2058653831
1236.12381	0.2043089271
1234.19538	0.2031089216
1232.26695	0.2020089328
1230.33852	0.2006631494
1228.41009	0.1987225711
1226.48166	0.1959060729
1224.55323	0.1920824051
1222.62480	0.1873724908
1220.69637	0.1821167022
1218.76794	0.1767534763
1216.83951	0.1717911810
1214.91108	0.1677717268
1212.98265	0.1651548147
1211.05422	0.1642056704
1209.12579	0.1649004519
1207.19736	0.1668950170
1205.26893	0.1695511490
1203.34049	0.1720121801
1201.41206	0.1733626276
1199.48363	0.1728344858
1197.55520	0.1700208336
1195.62677	0.1649952829
1193.69834	0.1582754850
1191.76991	0.1506626755
1189.84148	0.1430222988
1187.91305	0.1360799968
1185.98462	0.1303468943
1184.05619	0.1261376739
1182.12776	0.1236213446
1180.19933	0.1229080930
1178.27090	0.1241084561
1176.34247	0.1273625791
1174.41404	0.1328573972
1172.48561	0.1407825500
1170.55718	0.1512622684
1168.62875	0.1642920077
1166.70032	0.1796557307
1164.77189	0.1968823969
1162.84346	0.2152804285
1160.91503	0.2340329885
1158.98660	0.2523376346
1157.05817	0.2694840729
1155.12974	0.2848246098
1153.20131	0.2977136970
1151.27288	0.3074608743
1149.34445	0.3133987486
1147.41602	0.3151961565
1145.48759	0.3132930994
1143.55916	0.3091828823
1141.63073	0.3052192628
1139.70230	0.3038036227
1137.77387	0.3064100742
1135.84544	0.3130952716
1133.91700	0.3227571845
1131.98857	0.3339409828
1130.06014	0.3456059098
1128.13171	0.3573948741
1126.20328	0.3694438934
1124.27485	0.3820010126
1122.34642	0.3952022493
1120.41799	0.4091357589
1118.48956	0.4239490926
1116.56113	0.4398210049
1114.63270	0.4568066001
1112.70427	0.4746098816
1110.77584	0.4924692810
1108.84741	0.5092361569
1106.91898	0.5235642791
1104.99055	0.5341297984
1103.06212	0.5398042202
1101.13369	0.5398591161
1099.20526	0.5343644619
1097.27683	0.5247726440
1095.34840	0.5143918395
1093.41997	0.5081117153
1091.49154	0.5110248923
1089.56311	0.5265849233
1087.63468	0.5553506017
1085.70625	0.5948776007
1083.77782	0.6406295300
1081.84939	0.6872054935
1079.92096	0.7293092608
1077.99253	0.7624371648
1076.06410	0.7834303975
1074.13567	0.7910209298
1072.20724	0.7862201929
1070.27881	0.7721857429
1068.35038	0.7535369396
1066.42195	0.7352778912
1064.49351	0.7215794325
1062.56508	0.7148982286
1060.63665	0.7156718969
1058.70822	0.7225642204
1056.77979	0.7332029939
1054.85136	0.7451587319
1052.92293	0.7568601370
1050.99450	0.7681841850
1049.06607	0.7803956270
1047.13764	0.7954096794
1045.20921	0.8148842454
1043.28078	0.8396923542
1041.35235	0.8698279262
1039.42392	0.9045445323
1037.49549	0.9425730109
1035.56706	0.9823026061
1033.63863	1.0218524933
1031.71020	1.0590424538
1029.78177	1.0914032459
1027.85334	1.1165205240
1025.92491	1.1328350306
1023.99648	1.1404503584
1022.06805	1.1412498951
1020.13962	1.1380170584
1018.21119	1.1330977678
1016.28276	1.1274363995
1014.35433	1.1202212572
1012.42590	1.1091060638
1010.49747	1.0908384323
1008.56904	1.0622520447
1006.64061	1.0218304396
1004.71218	0.9713900089
1002.78375	0.9167481065
1000.85532	0.8664417267
998.92689	0.8286324739
996.99845	0.8078951836
995.07002	0.8035448790
993.14159	0.8098012805
991.21316	0.8174384832
989.28473	0.8164025545
987.35630	0.7988371253
985.42787	0.7617892623
983.49944	0.7081512213
981.57101	0.6449491978
979.64258	0.5801282525
977.71415	0.5198650956
975.78572	0.4675139487
973.85729	0.4239908159
971.92886	0.3886783719
970.00043	0.3602518141
968.07200	0.3372866511
966.14357	0.3185290098
964.21514	0.3029824197
962.28671	0.2899519205
960.35828	0.2789347172
958.42985	0.2695403695
956.50142	0.2615055740
954.57299	0.2546274066
952.64456	0.2487448901
950.71613	0.2437502444
948.78770	0.2395480126
946.85927	0.2361015081
944.93084	0.2334323972
943.00241	0.2315714508
941.07398	0.2306167334
939.14555	0.2307443768
937.21712	0.2321919203
935.28869	0.2352676690
933.36026	0.2402213812
931.43183	0.2471316308
929.50340	0.2558628321
927.57496	0.2659742236
925.64653	0.2767732143
923.71810	0.2874645293
921.78967	0.2972544730
919.86124	0.3055269420
917.93281	0.3119632602
916.00438	0.3165648580
914.07595	0.3197188377
912.14752	0.3221423924
910.21909	0.3247185051
908.29066	0.3282993138
906.36223	0.3333592713
904.43380	0.3397566080
902.50537	0.3467737138
900.57694	0.3532414436
898.64851	0.3579455316
