3997.63597	-0.0029017825
3995.70754	-0.0028875370
3993.77911	-0.0028762224
3991.85068	-0.0028675306
3989.92225	-0.0028579128
3987.99382	-0.0028456205
3986.06539	-0.0028347163
3984.13696	-0.0028290069
3982.20853	-0.0028263323
3980.28010	-0.0028236576
3978.35167	-0.0028182568
3976.42324	-0.0028087408
3974.49481	-0.0027962925
3972.56638	-0.0027840498
3970.63795	-0.0027765906
3968.70952	-0.0027768994
3966.78109	-0.0027825579
3964.85266	-0.0027888338
3962.92423	-0.0027936178
3960.99580	-0.0027960353
3959.06737	-0.0027964469
3957.13894	-0.0027984530
3955.21051	-0.0028044714
3953.28207	-0.0028087408
3951.35364	-0.0028065804
3949.42521	-0.0028051401
3947.49678	-0.0028099238
3945.56835	-0.0028161993
3943.63992	-0.0028219603
3941.71149	-0.0028303957
3939.78306	-0.0028380081
3937.85463	-0.0028417115
3935.92620	-0.0028462375
3933.99777	-0.0028565242
3932.06934	-0.0028725709
3930.14091	-0.0028906227
3928.21248	-0.0029063595
3926.28405	-0.0029201417
3924.35562	-0.0029370086
3922.42719	-0.0029584002
3920.49876	-0.0029795335
3918.57033	-0.0030001516
3916.64190	-0.0030246247
3914.71347	-0.0030494563
3912.78504	-0.0030700197
3910.85661	-0.0030880631
3908.92818	-0.0031039470
3906.99975	-0.0031191621
3905.07132	-0.0031378204
3903.14289	-0.0031612578
3901.21446	-0.0031876748
3899.28603	-0.0032124971
3897.35760	-0.0032321278
3895.42917	-0.0032489828
3893.50074	-0.0032651690
3891.57231	-0.0032795565
3889.64388	-0.0032909119
3887.71545	-0.0033005199
3885.78701	-0.0033107444
3883.85858	-0.0033195300
3881.93015	-0.0033244623
3880.00172	-0.0033298056
3878.07329	-0.0033400294
3876.14486	-0.0033511263
3874.21643	-0.0033548251
3872.28800	-0.0033506639
3870.35957	-0.0033468108
3868.43114	-0.0033479410
3866.50271	-0.0033504071
3864.57428	-0.0033522050
3862.64585	-0.0033544141
3860.71742	-0.0033561608
3858.78899	-0.0033561608
3856.86056	-0.0033527189
3854.93213	-0.0033468623
3853.00370	-0.0033433686
3851.07527	-0.0033412625
3849.14684	-0.0033346349
3847.21841	-0.0033240514
3845.28998	-0.0033122345
3843.36155	-0.0032984135
3841.43312	-0.0032843349
3839.50469	-0.0032725683
3837.57626	-0.0032618805
3835.64783	-0.0032501647
3833.71940	-0.0032376263
3831.79097	-0.0032230320
3829.86254	-0.0032018593
3827.93411	-0.0031769336
3826.00568	-0.0031563239
3824.07725	-0.0031376663
3822.14882	-0.0031151529
3820.22039	-0.0030901195
3818.29196	-0.0030626683
3816.36352	-0.0030307428
3814.43509	-0.0029975807
3812.50666	-0.0029672957
3810.57823	-0.0029372659
3808.64980	-0.0029029653
3806.72137	-0.0028630046
3804.79294	-0.0028205200
3802.86451	-0.0027805003
3800.93608	-0.0027441811
3799.00765	-0.0027065210
3797.07922	-0.0026627346
3795.15079	-0.0026164223
3793.22236	-0.0025730385
3791.29393	-0.0025323783
3789.36550	-0.0024889347
3787.43707	-0.0024375070
3785.50864	-0.0023811304
3783.58021	-0.0023285572
3781.65178	-0.0022800460
3779.72335	-0.0022286451
3777.79492	-0.0021696142
3775.86649	-0.0021047532
3773.93806	-0.0020385429
3772.00963	-0.0019736625
3770.08120	-0.0019099063
3768.15277	-0.0018449550
3766.22434	-0.0017760755
3764.29591	-0.0017027500
3762.36748	-0.0016296186
3760.43905	-0.0015603952
3758.51062	-0.0014876525
3756.58219	-0.0014044737
3754.65376	-0.0013169431
3752.72533	-0.0012301693
3750.79690	-0.0011410030
3748.86847	-0.0010493392
3746.94003	-0.0009539367
3745.01160	-0.0008513311
3743.08317	-0.0007453419
3741.15474	-0.0006378793
3739.22631	-0.0005226337
3737.29788	-0.0003971680
3735.36945	-0.0002668024
3733.44102	-0.0001328782
3731.51259	0.0000117783
3729.58416	0.0001674886
3727.65573	0.0003313373
3725.72730	0.0005024006
3723.79887	0.0006880243
3721.87044	0.0008872153
3719.94201	0.0011027432
3718.01358	0.0013358787
3716.08515	0.0015854810
3714.15672	0.0018543859
3712.22829	0.0021427334
3710.29986	0.0024484536
3708.37143	0.0027782000
3706.44300	0.0031401622
3704.51457	0.0035337161
3702.58614	0.0039583985
3700.65771	0.0044195312
3698.72928	0.0049235132
3696.80085	0.0054669534
3694.87242	0.0060480582
3692.94399	0.0066763619
3691.01556	0.0073625734
3689.08713	0.0081109488
3687.15870	0.0089229709
3685.23027	0.0098011652
3683.30184	0.0107520875
3681.37341	0.0117821693
3679.44497	0.0128913326
3677.51654	0.0140832774
3675.58811	0.0153663242
3673.65968	0.0167430211
3671.73125	0.0182143282
3669.80282	0.0197806302
3667.87439	0.0214397553
3665.94596	0.0231936220
3664.01753	0.0250443183
3662.08910	0.0269863643
3660.16067	0.0290127583
3658.23224	0.0311189760
3656.30381	0.0333036780
3654.37538	0.0355640911
3652.44695	0.0378933586
3650.51852	0.0402834117
3648.59009	0.0427267887
3646.66166	0.0452215895
3644.73323	0.0477716923
3642.80480	0.0503738932
3640.87637	0.0530172773
3638.94794	0.0556995720
3637.01951	0.0584261902
3635.09108	0.0611918829
3633.16265	0.0639905334
3631.23422	0.0668267831
3629.30579	0.0697003677
3627.37736	0.0726089180
3625.44893	0.0755463392
3623.52050	0.0785194337
3621.59207	0.0815297291
3619.66364	0.0845780447
3617.73521	0.0876660645
3615.80678	0.0907893702
3613.87835	0.0939532369
3611.94992	0.0971614942
3610.02148	0.1004110500
3608.09305	0.1036990359
3606.16462	0.1070249528
3604.23619	0.1103938669
3602.30776	0.1138135344
3600.37933	0.1172818094
3598.45090	0.1207886785
3596.52247	0.1243333593
3594.59404	0.1279256344
3592.66561	0.1315624416
3590.73718	0.1352326125
3588.80875	0.1389411688
3586.88032	0.1426958889
3584.95189	0.1464922875
3583.02346	0.1503213942
3581.09503	0.1541810483
3579.16660	0.1580752432
3577.23817	0.1620039195
3575.30974	0.1659640670
3573.38131	0.1699550152
3571.45288	0.1739708930
3569.52445	0.1780079901
3567.59602	0.1820726842
3565.66759	0.1861650199
3563.73916	0.1902766675
3561.81073	0.1944004297
3559.88230	0.1985306889
3557.95387	0.2026669234
3556.02544	0.2068157494
3554.09701	0.2109841853
3552.16858	0.2151702940
3550.24015	0.2193616182
3548.31172	0.2235507071
3546.38329	0.2277389467
3544.45486	0.2319308221
3542.52643	0.2361295968
3540.59799	0.2403333783
3538.66956	0.2445358336
3536.74113	0.2487318069
3534.81270	0.2529227436
3532.88427	0.2571086586
3530.95584	0.2612830102
3529.02741	0.2654440403
3527.09898	0.2695966065
3525.17055	0.2737418115
3523.24212	0.2778767943
3521.31369	0.2820037901
3519.38526	0.2861266136
3517.45683	0.2902389169
3515.52840	0.2943333685
3513.59997	0.2984107435
3511.67154	0.3024723232
3509.74311	0.3065225780
3507.81468	0.3105669320
3505.88625	0.3145960271
3503.95782	0.3185970783
3502.02939	0.3225812018
3500.10096	0.3265641928
3498.17253	0.3305424750
3496.24410	0.3345100880
3494.31567	0.3384664059
3492.38724	0.3424127400
3490.45881	0.3463461697
3488.53038	0.3502562344
3486.60195	0.3541457951
3484.67352	0.3580318093
3482.74509	0.3619240522
3480.81666	0.3658194542
3478.88823	0.3697095215
3476.95980	0.3735841513
3475.03137	0.3774391711
3473.10293	0.3812835217
3471.17450	0.3851257563
3469.24607	0.3889661431
3467.31764	0.3928090930
3465.38921	0.3966599107
3463.46078	0.4005179107
3461.53235	0.4043748081
3459.60392	0.4082188308
3457.67549	0.4120443761
3455.74706	0.4158573151
3453.81863	0.4196710289
3451.89020	0.4234905839
3449.96177	0.4273026288
3448.03334	0.4311010242
3446.10491	0.4348968863
3444.17648	0.4386831224
3442.24805	0.4424434006
3440.31962	0.4461852908
3438.39119	0.4499199390
3436.46276	0.4536511898
3434.53433	0.4573830664
3432.60590	0.4611023664
3430.67747	0.4647908807
3428.74904	0.4684534073
3426.82061	0.4720954597
3424.89218	0.4757168293
3422.96375	0.4793236554
3421.03532	0.4829044342
3419.10689	0.4864381850
3417.17846	0.4899296165
3415.25003	0.4933938682
3413.32160	0.4968307614
3411.39317	0.5002313852
3409.46474	0.5035940409
3407.53631	0.5069231391
3405.60788	0.5102074146
3403.67944	0.5134258866
3401.75101	0.5165874958
3399.82258	0.5197169185
3397.89415	0.5228123069
3395.96572	0.5258485079
3394.03729	0.5288054347
3392.10886	0.5316911936
3390.18043	0.5345298648
3388.25200	0.5373198390
3386.32357	0.5400347114
3384.39514	0.5426700115
3382.46671	0.5452433825
3380.53828	0.5477490425
3378.60985	0.5501694083
3376.68142	0.5525165200
3374.75299	0.5548159480
3372.82456	0.5570550561
3370.89613	0.5592059493
3368.96770	0.5612857342
3367.03927	0.5633233190
3365.11084	0.5653089285
3363.18241	0.5672155619
3361.25398	0.5690322518
3359.32555	0.5707750916
3357.39712	0.5724710226
3355.46869	0.5741263628
3353.54026	0.5757219791
3351.61183	0.5772409439
3349.68340	0.5786954165
3347.75497	0.5801029801
3345.82654	0.5814557076
3343.89811	0.5827536583
3341.96968	0.5840131044
3340.04125	0.5852318406
3338.11282	0.5864031911
3336.18439	0.5875337124
3334.25595	0.5886287689
3332.32752	0.5896869898
3330.39909	0.5907007456
3328.47066	0.5916604996
3326.54223	0.5925772786
3324.61380	0.5934780240
3322.68537	0.5943747163
3320.75694	0.5952553749
3318.82851	0.5961096883
3316.90008	0.5969407558
3314.97165	0.5977396965
3313.04322	0.5985034108
3311.11479	0.5992560387
3309.18636	0.5999958515
3307.25793	0.6007063389
3305.32950	0.6014098525
3303.40107	0.6021174788
3301.47264	0.6028005481
3299.54421	0.6034494638
3297.61578	0.6040771604
3295.68735	0.6046822667
3293.75892	0.6052574515
3291.83049	0.6058109403
3289.90206	0.6063510180
3287.97363	0.6068600416
3286.04520	0.6073253155
3284.11677	0.6077676415
3282.18834	0.6082043648
3280.25991	0.6086152196
3278.33148	0.6089743972
3276.40305	0.6092851162
3274.47462	0.6095474958
3272.54619	0.6097484231
3270.61776	0.6098955274
3268.68933	0.6100053787
3266.76089	0.6100836992
3264.83246	0.6101279855
3262.90403	0.6101139784
3260.97560	0.6100171804
3259.04717	0.6098501086
3257.11874	0.6096248031
3255.19031	0.6093200445
3253.26188	0.6089259982
3251.33345	0.6084609628
3249.40502	0.6079273224
3247.47659	0.6073077917
3245.54816	0.6066088080
3243.61973	0.6058424115
3241.69130	0.6049824357
3239.76287	0.6040036678
3237.83444	0.6029205918
3235.90601	0.6017535925
3233.97758	0.6005014777
3232.04915	0.5991730690
3230.12072	0.5977845788
3228.19229	0.5963118672
3226.26386	0.5947031975
3224.33543	0.5929573178
3222.40700	0.5911203623
3220.47857	0.5891972780
3218.55014	0.5871602893
3216.62171	0.5850189924
3214.69328	0.5827938914
3212.76485	0.5804790854
3210.83642	0.5780572295
3208.90799	0.5755223036
3206.97956	0.5728934407
3205.05113	0.5701823235
3203.12270	0.5673645139
3201.19427	0.5644328594
3199.26584	0.5614101887
3197.33740	0.5582998395
3195.40897	0.5550939441
3193.48054	0.5517985821
3191.55211	0.5484233499
3189.62368	0.5449687243
3187.69525	0.5414278507
3185.76682	0.5377974510
3183.83839	0.5340840220
3181.90996	0.5302985311
3179.98153	0.5264434814
3178.05310	0.5225142837
3176.12467	0.5185090303
3174.19624	0.5144364834
3172.26781	0.5103133321
3170.33938	0.5061454177
3168.41095	0.5019289851
3166.48252	0.4976609051
3164.55409	0.4933352768
3162.62566	0.4889498353
3160.69723	0.4845064580
3158.76880	0.4800045490
3156.84037	0.4754509330
3154.91194	0.4708581567
3152.98351	0.4662356675
3151.05508	0.4615967572
3149.12665	0.4569427371
3147.19822	0.4522529542
3145.26979	0.4475180805
3143.34136	0.4427541792
3141.41293	0.4379750490
3139.48450	0.4331806302
3137.55607	0.4283681214
3135.62764	0.4235328734
3133.69921	0.4186777771
3131.77078	0.4138151705
3129.84235	0.4089523554
3127.91391	0.4040970504
3125.98548	0.3992456496
3124.05705	0.3943788409
3122.12862	0.3894924819
3120.20019	0.3846096694
3118.27176	0.3797543943
3116.34333	0.3749241233
3114.41490	0.3701004684
3112.48647	0.3652785420
3110.55804	0.3604678214
3108.62961	0.3556723297
3106.70118	0.3508930206
3104.77275	0.3461351395
3102.84432	0.3414005041
3100.91589	0.3366867602
3098.98746	0.3319899738
3097.05903	0.3273083270
3095.13060	0.3226460814
3093.20217	0.3180147409
3091.27374	0.3134200573
3089.34531	0.3088580072
3087.41688	0.3043268621
3085.48845	0.2998250723
3083.56002	0.2953510582
3081.63159	0.2909111679
3079.70316	0.2865119874
3077.77473	0.2821529210
3075.84630	0.2778326273
3073.91787	0.2735558748
3071.98944	0.2693228424
3070.06101	0.2651274800
3068.13258	0.2609707713
3066.20415	0.2568602562
3064.27572	0.2527993917
3062.34729	0.2487851083
3060.41885	0.2448169887
3058.49042	0.2408921570
3056.56199	0.2370084226
3054.63356	0.2331731319
3052.70513	0.2293915302
3050.77670	0.2256621271
3048.84827	0.2219854742
3046.91984	0.2183637470
3044.99141	0.2147957832
3043.06298	0.2112810165
3041.13455	0.2078214586
3039.20612	0.2044190019
3037.27769	0.2010716498
3035.34926	0.1977776587
3033.42083	0.1945393682
3031.49240	0.1913612932
3029.56397	0.1882447898
3027.63554	0.1851888299
3025.70711	0.1821939200
3023.77868	0.1792609394
3021.85025	0.1763943285
3019.92182	0.1736002713
3017.99339	0.1708751619
3016.06496	0.1682159603
3014.13653	0.1656302512
3012.20810	0.1631297171
3010.27967	0.1607239246
3008.35124	0.1584165990
3006.42281	0.1562089473
3004.49438	0.1541090608
3002.56595	0.1521310359
3000.63752	0.1502838880
2998.70909	0.1485724151
2996.78066	0.1470084637
2994.85223	0.1456121206
2992.92380	0.1443923265
2990.99536	0.1433479935
2989.06693	0.1424770504
2987.13850	0.1417797506
2985.21007	0.1412541866
2983.28164	0.1408855170
2981.35321	0.1406521946
2979.42478	0.1405334473
2977.49635	0.1405047178
2975.56792	0.1405477226
2973.63949	0.1406533867
2971.71106	0.1408161670
2969.78263	0.1410464644
2967.85420	0.1413827837
2965.92577	0.1418680996
2963.99734	0.1425324976
2962.06891	0.1434070915
2960.14048	0.1445232332
2958.21205	0.1458979547
2956.28362	0.1475303173
2954.35519	0.1494004279
2952.42676	0.1514674276
2950.49833	0.1536772549
2948.56990	0.1559694409
2946.64147	0.1582727581
2944.71304	0.1605093032
2942.78461	0.1626106352
2940.85618	0.1645224690
2938.92775	0.1662083119
2936.99932	0.1676492840
2935.07089	0.1688388288
2933.14246	0.1697780341
2931.21403	0.1704685241
2929.28560	0.1709128767
2927.35717	0.1711267531
2925.42874	0.1711373478
2923.50031	0.1709704995
2921.57187	0.1706487387
2919.64344	0.1701949388
2917.71501	0.1696455628
2915.78658	0.1690586358
2913.85815	0.1684854031
2911.92972	0.1679314375
2910.00129	0.1673715264
2908.07286	0.1667939723
2906.14443	0.1662147194
2904.21600	0.1656633914
2902.28757	0.1651610285
2900.35914	0.1647129804
2898.43071	0.1643180102
2896.50228	0.1639638245
2894.57385	0.1636225730
2892.64542	0.1632562131
2890.71699	0.1628200114
2888.78856	0.1622709632
2886.86013	0.1615743786
2884.93170	0.1607069075
2883.00327	0.1596640795
2881.07484	0.1584625989
2879.14641	0.1571322083
2877.21798	0.1557067633
2875.28955	0.1542143524
2873.36112	0.1526690573
2871.43269	0.1510689110
2869.50426	0.1494004279
2867.57583	0.1476476640
2865.64740	0.1457948536
2863.71897	0.1438295245
2861.79054	0.1417473108
2859.86211	0.1395554543
2857.93368	0.1372746527
2856.00525	0.1349309236
2854.07681	0.1325454414
2852.14838	0.1301400512
2850.21995	0.1277476549
2848.29152	0.1254032701
2846.36309	0.1231165677
2844.43466	0.1208702177
2842.50623	0.1186519936
2840.57780	0.1164726615
2838.64937	0.1143471152
2836.72094	0.1122767106
2834.79251	0.1102664769
2832.86408	0.1083305180
2830.93565	0.1064747497
2829.00722	0.1046923697
2827.07879	0.1029746532
2825.15036	0.1013197973
2823.22193	0.0997297093
2821.29350	0.0982006565
2819.36507	0.0967251211
2817.43664	0.0953016803
2815.50821	0.0939320624
2813.57978	0.0926130041
2811.65135	0.0913381577
2809.72292	0.0901001096
2807.79449	0.0888938159
2805.86606	0.0877196938
2803.93763	0.0865770802
2802.00920	0.0854619816
2800.08077	0.0843713656
2798.15234	0.0833007246
2796.22391	0.0822471753
2794.29548	0.0812161192
2792.36705	0.0802127868
2790.43862	0.0792317390
2788.51019	0.0782658905
2786.58176	0.0773162246
2784.65332	0.0763896257
2782.72489	0.0754885525
2780.79646	0.0746094212
2778.86803	0.0737522542
2776.93960	0.0729208961
2775.01117	0.0721154585
2773.08274	0.0713357329
2771.15431	0.0705806985
2769.22588	0.0698456392
2767.29745	0.0691316426
2765.36902	0.0684452206
2763.44059	0.0677881315
2761.51216	0.0671597794
2759.58373	0.0665609390
2757.65530	0.0659928992
2755.72687	0.0654554889
2753.79844	0.0649500415
2751.87001	0.0644769445
2749.94158	0.0640317500
2748.01315	0.0636101216
2746.08472	0.0632100999
2744.15629	0.0628321022
2742.22786	0.0624795705
2740.29943	0.0621504113
2738.37100	0.0618369356
2736.44257	0.0615341812
2734.51414	0.0612392426
2732.58571	0.0609475672
2730.65728	0.0606563874
2728.72885	0.0603655241
2726.80042	0.0600732751
2724.87199	0.0597750768
2722.94356	0.0594665743
2721.01513	0.0591495112
2719.08670	0.0588224530
2717.15827	0.0584772453
2715.22983	0.0581144728
2713.30140	0.0577410273
2711.37297	0.0573552065
2709.44454	0.0569502749
2707.51611	0.0565259941
2705.58768	0.0560846627
2703.65925	0.0556224771
2701.73082	0.0551357977
2699.80239	0.0546280295
2697.87396	0.0541035533
2695.94553	0.0535660349
2694.01710	0.0530150570
2692.08867	0.0524438284
2690.16024	0.0518525876
2688.23181	0.0512488633
2686.30338	0.0506340563
2684.37495	0.0500076823
2682.44652	0.0493724085
2680.51809	0.0487281308
2678.58966	0.0480758436
2676.66123	0.0474171117
2674.73280	0.0467524901
2672.80437	0.0460840762
2670.87594	0.0454115719
2668.94751	0.0447342284
2667.01908	0.0440545008
2665.09065	0.0433716588
2663.16222	0.0426794924
2661.23379	0.0419723466
2659.30536	0.0412475616
2657.37693	0.0405091792
2655.44850	0.0397649892
2653.52007	0.0390178487
2651.59164	0.0382699855
2649.66321	0.0375272743
2647.73477	0.0367956385
2645.80634	0.0360804200
2643.87791	0.0353793241
2641.94948	0.0346867591
2640.02105	0.0340038650
2638.09262	0.0333363228
2636.16419	0.0326895118
2634.23576	0.0320651457
2632.30733	0.0314584039
2630.37890	0.0308640152
2628.45047	0.0302836504
2626.52204	0.0297229365
2624.59361	0.0291824918
2622.66518	0.0286590867
2620.73675	0.0281504262
2618.80832	0.0276565943
2616.87989	0.0271835234
2614.95146	0.0267391298
2613.02303	0.0263195578
2611.09460	0.0259169042
2609.16617	0.0255319476
2607.23774	0.0251652431
2605.30931	0.0248153731
2603.38088	0.0244831499
2601.45245	0.0241657924
2599.52402	0.0238620136
2597.59559	0.0235753376
2595.66716	0.0233066287
2593.73873	0.0230523646
2591.81030	0.0228121877
2589.88187	0.0225883964
2587.95344	0.0223714523
2586.02501	0.0221480243
2584.09658	0.0219240040
2582.16815	0.0217163172
2580.23972	0.0215243157
2578.31128	0.0213405006
2576.38285	0.0211658962
2574.45442	0.0210020393
2572.52599	0.0208506547
2570.59756	0.0207114592
2568.66913	0.0205688626
2566.74070	0.0204145629
2564.81227	0.0202698130
2562.88384	0.0201484822
2560.95541	0.0200343411
2559.02698	0.0199149735
2557.09855	0.0198001638
2555.17012	0.0196990352
2553.24169	0.0196058657
2551.31326	0.0195117146
2549.38483	0.0194182321
2547.45640	0.0193338376
2545.52797	0.0192552228
2543.59954	0.0191725902
2541.67111	0.0190874599
2539.74268	0.0190032367
2537.81425	0.0189211387
2535.88582	0.0188448709
2533.95739	0.0187722631
2532.02896	0.0187001284
2530.10053	0.0186178442
2528.17210	0.0185108054
2526.24367	0.0183947459
2524.31524	0.0182937011
2522.38681	0.0182033964
2520.45838	0.0181101151
2518.52995	0.0180064663
2516.60152	0.0178981479
2514.67309	0.0178034473
2512.74466	0.0177211724
2510.81623	0.0176338442
2508.88779	0.0175420064
2506.95936	0.0174599700
2505.03093	0.0173907187
2503.10250	0.0173215605
2501.17407	0.0172420423
2499.24564	0.0171587970
2497.31721	0.0170760788
2495.38878	0.0169882867
2493.46035	0.0168999769
2491.53192	0.0168145094
2489.60349	0.0167246722
2487.67506	0.0166267864
2485.74663	0.0165217165
2483.81820	0.0164095461
2481.88977	0.0162888058
2479.96134	0.0161548257
2478.03291	0.0160103049
2476.10448	0.0158626381
2474.17605	0.0157148335
2472.24762	0.0155738667
2470.31919	0.0154318726
2468.39076	0.0152715323
2466.46233	0.0151040135
2464.53390	0.0149424803
2462.60547	0.0147824809
2460.67704	0.0146245481
2458.74861	0.0144668864
2456.82018	0.0143130813
2454.89175	0.0141690383
2452.96332	0.0140279848
2451.03489	0.0138912527
2449.10646	0.0137678972
2447.17803	0.0136565967
2445.24960	0.0135434018
2443.32117	0.0134125892
2441.39273	0.0132705001
2439.46430	0.0131444121
2437.53587	0.0130428476
2435.60744	0.0129461875
2433.67901	0.0128461095
2431.75058	0.0127494661
2429.82215	0.0126547106
2427.89372	0.0125593096
2425.96529	0.0124640083
2424.03686	0.0123670511
2422.10843	0.0122657754
2420.18000	0.0121623399
2418.25157	0.0120599139
2416.32314	0.0119640045
2414.39471	0.0118787307
2412.46628	0.0118024116
2410.53785	0.0117315566
2408.60942	0.0116649950
2406.68099	0.0116046388
2404.75256	0.0115534617
2402.82413	0.0115151033
2400.89570	0.0114923762
2398.96727	0.0114795389
2397.03884	0.0114697572
2395.11041	0.0114638573
2393.18198	0.0114662228
2391.25355	0.0114789801
2389.32512	0.0115017332
2387.39669	0.0115294838
2385.46826	0.0115576088
2383.53983	0.0115882354
2381.61140	0.0116255898
2379.68297	0.0116685582
2377.75454	0.0117121702
2375.82611	0.0117535777
2373.89768	0.0117941387
2371.96924	0.0118361404
2370.04081	0.0118798213
2368.11238	0.0119257690
2366.18395	0.0119756320
2364.25552	0.0120279239
2362.32709	0.0120795025
2360.39866	0.0121291447
2358.47023	0.0121764755
2356.54180	0.0122204041
2354.61337	0.0122626862
2352.68494	0.0123051321
2350.75651	0.0123429755
2348.82808	0.0123702744
2346.89965	0.0123898769
2344.97122	0.0124107590
2343.04279	0.0124400072
2341.11436	0.0124720540
2339.18593	0.0124893170
2337.25750	0.0124890506
2335.32907	0.0124921147
2333.40064	0.0125107905
2331.47221	0.0125387395
2329.54378	0.0125775617
2327.61535	0.0126404520
2325.68692	0.0127167590
2323.75849	0.0127543444
2321.83006	0.0127198510
2319.90163	0.0126557769
2317.97320	0.0126171336
2316.04477	0.0126086324
2314.11634	0.0126153482
2312.18791	0.0126287527
2310.25948	0.0126510328
2308.33105	0.0126807764
2306.40262	0.0127079897
2304.47419	0.0127383508
2302.54575	0.0127878543
2300.61732	0.0128533086
2298.68889	0.0129225058
2296.76046	0.0130049437
2294.83203	0.0131111946
2292.90360	0.0132222222
2290.97517	0.0133265238
2289.04674	0.0134513564
2287.11831	0.0136102252
2285.18988	0.0137764476
2283.26145	0.0139247701
2281.33302	0.0140607636
2279.40459	0.0142036472
2277.47616	0.0143526513
2275.54773	0.0144936498
2273.61930	0.0146244671
2271.69087	0.0147580290
2269.76244	0.0148916859
2267.83401	0.0149954250
2265.90558	0.0150603550
2263.97715	0.0151204439
2262.04872	0.0152158728
2260.12029	0.0153452996
2258.19186	0.0154713839
2256.26343	0.0155804399
2254.33500	0.0157035068
2252.40657	0.0158523284
2250.47814	0.0159900282
2248.54971	0.0161085092
2246.62128	0.0162262451
2244.69285	0.0163200889
2242.76442	0.0163964815
2240.83599	0.0164846368
2238.90756	0.0165679958
2236.97913	0.0166281853
2235.05069	0.0167055186
2233.12226	0.0168158803
2231.19383	0.0168915261
2229.26540	0.0169227999
2227.33697	0.0169736445
2225.40854	0.0170651209
2223.48011	0.0171631593
2221.55168	0.0172246974
2219.62325	0.0172621626
2217.69482	0.0172915515
2215.76639	0.0172283873
2213.83796	0.0170677584
2211.90953	0.0170203764
2209.98110	0.0171585809
2208.05267	0.0173135046
2206.12424	0.0174072888
2204.19581	0.0174876191
2202.26738	0.0176362172
2200.33895	0.0178661551
2198.41052	0.0180527959
2196.48209	0.0181887932
2194.55366	0.0183699541
2192.62523	0.0185456257
2190.69680	0.0186316241
2188.76837	0.0186682399
2186.83994	0.0187103692
2184.91151	0.0186998304
2182.98308	0.0184803624
2181.05465	0.0180064663
2179.12622	0.0174898282
2177.19779	0.0170540810
2175.26936	0.0165571850
2173.34093	0.0158433616
2171.41250	0.0149748195
2169.48407	0.0140707903
2167.55564	0.0130077712
2165.62720	0.0117065851
2163.69877	0.0102147711
2161.77034	0.0084425174
2159.84191	0.0067685605
2157.91348	0.0062573920
2155.98505	0.0070630843
2154.05662	0.0083383257
2152.12819	0.0095797693
2150.19976	0.0105826687
2148.27133	0.0113509400
2146.34290	0.0121207330
2144.41447	0.0130001698
2142.48604	0.0138698984
2140.55761	0.0146013638
2138.62918	0.0152109666
2136.70075	0.0157670397
2134.77232	0.0163450334
2132.84389	0.0170181952
2130.91546	0.0177225471
2128.98703	0.0183248855
2127.05860	0.0187425595
2125.13017	0.0189736243
2123.20174	0.0191380437
2121.27331	0.0193150006
2119.34488	0.0194230787
2117.41645	0.0194145776
2115.48802	0.0193481017
2113.55959	0.0192432348
2111.63116	0.0190865938
2109.70273	0.0189060792
2107.77430	0.0187323429
2105.84587	0.0185719933
2103.91744	0.0184112731
2101.98901	0.0182148423
2100.06058	0.0179811567
2098.13215	0.0177227911
2096.20371	0.0175074805
2094.27528	0.0173969157
2092.34685	0.0173608400
2090.41842	0.0173100028
2088.48999	0.0171742011
2086.56156	0.0169231761
2084.63313	0.0165881924
2082.70470	0.0162142608
2080.77627	0.0158437639
2078.84784	0.0154340994
2076.91941	0.0149551537
2074.99098	0.0144517925
2073.06255	0.0139438557
2071.13412	0.0134391543
2069.20569	0.0129753109
2067.27726	0.0125551261
2065.34883	0.0121721365
2063.42040	0.0118150190
2061.49197	0.0113956090
2059.56354	0.0108773494
2057.63511	0.0103703393
2055.70668	0.0099159833
2053.77825	0.0093543604
2051.84982	0.0083997082
2049.92139	0.0069109844
2047.99296	0.0052706036
2046.06453	0.0039889375
2044.13610	0.0029676920
2042.20767	0.0019688387
2040.27924	0.0010272042
2038.35081	0.0000477622
2036.42238	-0.0012306856
2034.49395	-0.0027065210
2032.56552	-0.0038625614
2030.63709	-0.0044048633
2028.70865	-0.0045094509
2026.78022	-0.0045220549
2024.85179	-0.0046245651
2022.92336	-0.0047260276
2020.99493	-0.0046543763
2019.06650	-0.0044487817
2017.13807	-0.0042861020
2015.20964	-0.0040679206
2013.28121	-0.0036770233
2011.35278	-0.0033660759
2009.42435	-0.0032263210
2007.49592	-0.0028574499
2005.56749	-0.0019650557
2003.63906	-0.0007730949
2001.71063	0.0003237470
1999.78220	0.0010556693
1997.85377	0.0014006161
1995.92534	0.0014850774
1993.99691	0.0013604690
1992.06848	0.0010941792
1990.14005	0.0007859616
1988.21162	0.0004189334
1986.28319	-0.0000915231
1984.35476	-0.0007635340
1982.42633	-0.0016669594
1980.49790	-0.0031476889
1978.56947	-0.0051327641
1976.64104	-0.0063907946
1974.71261	-0.0060945475
1972.78418	-0.0049711592
1970.85575	-0.0037067968
1968.92732	-0.0023776807
1966.99889	-0.0011219488
1965.07046	-0.0000587572
1963.14203	0.0009221823
1961.21360	0.0019738835
1959.28516	0.0031609435
1957.35673	0.0043852227
1955.42830	0.0054911496
1953.49987	0.0064350357
1951.57144	0.0071810237
1949.64301	0.0076782885
1947.71458	0.0080252951
1945.78615	0.0083483271
1943.85772	0.0086389072
1941.92929	0.0088848174
1940.00086	0.0091292802
1938.07243	0.0093736956
1936.14400	0.0095500788
1934.21557	0.0096207103
1932.28714	0.0096597485
1930.35871	0.0097529003
1928.43028	0.0098833572
1926.50185	0.0099815624
1924.57342	0.0100341178
1922.64499	0.0100832349
1920.71656	0.0101380013
1918.78813	0.0101757618
1916.85970	0.0102027655
1914.93127	0.0102329515
1913.00284	0.0102450633
1911.07441	0.0102416715
1909.14598	0.0102676190
1907.21755	0.0103199175
1905.28912	0.0103588598
1903.36069	0.0103809964
1901.43226	0.0103980973
1899.50383	0.0104041956
1897.57540	0.0104035595
1895.64697	0.0104258573
1893.71854	0.0104790768
1891.79011	0.0105358027
1889.86167	0.0105847111
1887.93324	0.0106351376
1886.00481	0.0106735509
1884.07638	0.0106901331
1882.14795	0.0107091563
1880.21952	0.0107483193
1878.29109	0.0108059831
1876.36266	0.0108672902
1874.43423	0.0109069189
1872.50580	0.0109327743
1870.57737	0.0109763648
1868.64894	0.0110434312
1866.72051	0.0111174928
1864.79208	0.0111828018
1862.86365	0.0112397531
1860.93522	0.0113002444
1859.00679	0.0113635352
1857.07836	0.0114230607
1855.14993	0.0114873797
1853.22150	0.0115707945
1851.29307	0.0116780251
1849.36464	0.0118017197
1847.43621	0.0119343894
1845.50778	0.0120746316
1843.57935	0.0122178486
1841.65092	0.0123627633
1839.72249	0.0125213675
1837.79406	0.0127006331
1835.86563	0.0128952255
1833.93720	0.0130943600
1832.00877	0.0132893696
1830.08034	0.0134824105
1828.15191	0.0136768185
1826.22348	0.0138630299
1824.29505	0.0140344016
1822.36661	0.0141976560
1820.43818	0.0143803712
1818.50975	0.0146344807
1816.58132	0.0149810901
1814.65289	0.0153699443
1812.72446	0.0157374069
1810.79603	0.0160614457
1808.86760	0.0163510796
1806.93917	0.0166239627
1805.01074	0.0168956164
1803.08231	0.0171736889
1801.15388	0.0174592696
1799.22545	0.0177523978
1797.29702	0.0180539563
1795.36859	0.0183643382
1793.44016	0.0186838321
1791.51173	0.0190158933
1789.58330	0.0193563830
1787.65487	0.0196954869
1785.72644	0.0200374592
1783.79801	0.0203950293
1781.86958	0.0207692944
1779.94115	0.0211566836
1778.01272	0.0215656906
1776.08429	0.0220058542
1774.15586	0.0224714875
1772.22743	0.0229473375
1770.29900	0.0234296657
1768.37057	0.0239266697
1766.44214	0.0244425088
1764.51371	0.0249782912
1762.58528	0.0255360380
1760.65685	0.0261200126
1758.72842	0.0267359912
1756.79999	0.0273824558
1754.87156	0.0280560050
1752.94312	0.0287627373
1751.01469	0.0295097698
1749.08626	0.0302975290
1747.15783	0.0311288200
1745.22940	0.0320113897
1743.30097	0.0329557098
1741.37254	0.0339705497
1739.44411	0.0350574441
1737.51568	0.0362136550
1735.58725	0.0374376215
1733.65882	0.0387337282
1731.73039	0.0401074104
1729.80196	0.0415620431
1727.87353	0.0431009419
1725.94510	0.0447286330
1724.01667	0.0464542769
1722.08824	0.0482897311
1720.15981	0.0502470508
1718.23138	0.0523358323
1716.30295	0.0545653589
1714.37452	0.0569467023
1712.44609	0.0594898202
1710.51766	0.0622053742
1708.58923	0.0651022047
1706.66080	0.0681881607
1704.73237	0.0714676306
1702.80394	0.0749472380
1700.87551	0.0786453784
1698.94708	0.0825685412
1697.01865	0.0867120475
1695.09022	0.0910794511
1693.16179	0.0956609920
1691.23336	0.1004476473
1689.30493	0.1054449305
1687.37650	0.1106456742
1685.44807	0.1160463467
1683.51963	0.1216307133
1681.59120	0.1273519546
1679.66277	0.1331857741
1677.73434	0.1391286254
1675.80591	0.1451612264
1673.87748	0.1512432098
1671.94905	0.1573345065
1670.02062	0.1634117216
1668.09219	0.1694392115
1666.16376	0.1753645539
1664.23533	0.1811488122
1662.30690	0.1867578328
1660.37847	0.1921435148
1658.45004	0.1972556710
1656.52161	0.2020526677
1654.59318	0.2065045536
1652.66475	0.2105631083
1650.73632	0.2141485065
1648.80789	0.2172067314
1646.87946	0.2197105139
1644.95103	0.2216138840
1643.02260	0.2228616625
1641.09417	0.2234106064
1639.16574	0.2232263237
1637.23731	0.2222798616
1635.30888	0.2205582559
1633.38045	0.2180749029
1631.45202	0.2148545384
1629.52359	0.2109283209
1627.59516	0.2063535303
1625.66673	0.2012087852
1623.73830	0.1955798715
1621.80987	0.1895675957
1619.88144	0.1832896620
1617.95301	0.1768459976
1616.02457	0.1703282595
1614.09614	0.1638503671
1612.16771	0.1575040072
1610.23928	0.1513465196
1608.31085	0.1454335600
1606.38242	0.1398079246
1604.45399	0.1344909817
1602.52556	0.1294962019
1600.59713	0.1248296499
1598.66870	0.1204869449
1596.74027	0.1164573953
1594.81184	0.1127204150
1592.88341	0.1092563048
1590.95498	0.1060558558
1589.02655	0.1031152159
1587.09812	0.1004422009
1585.16969	0.0980511978
1583.24126	0.0959290639
1581.31283	0.0940233022
1579.38440	0.0922749639
1577.45597	0.0906484723
1575.52754	0.0891383216
1573.59911	0.0877500102
1571.67068	0.0864774957
1569.74225	0.0853103548
1567.81382	0.0842412338
1565.88539	0.0832681805
1563.95696	0.0823900104
1562.02853	0.0815971568
1560.10010	0.0808783472
1558.17167	0.0802290961
1556.24324	0.0796498507
1554.31481	0.0791430473
1552.38638	0.0787069947
1550.45795	0.0783349276
1548.52952	0.0780248865
1546.60108	0.0777763426
1544.67265	0.0775851235
1542.74422	0.0774477944
1540.81579	0.0773590356
1538.88736	0.0773169100
1536.95893	0.0773255676
1535.03050	0.0773858577
1533.10207	0.0774949491
1531.17364	0.0776493475
1529.24521	0.0778492615
1527.31678	0.0781019107
1525.38835	0.0784131512
1523.45992	0.0787852556
1521.53149	0.0792258978
1519.60306	0.0797426477
1517.67463	0.0803425163
1515.74620	0.0810368583
1513.81777	0.0818342194
1511.88934	0.0827437043
1509.96091	0.0837813541
1508.03248	0.0849629641
1506.10405	0.0862970352
1504.17562	0.0877871141
1502.24719	0.0894422159
1500.31876	0.0912802815
1498.39033	0.0933179483
1496.46190	0.0955666006
1494.53347	0.0980342999
1492.60504	0.1007308364
1490.67661	0.1036742255
1488.74818	0.1068834588
1486.81975	0.1103735715
1484.89132	0.1141639873
1482.96289	0.1182869226
1481.03446	0.1227826849
1479.10603	0.1276901364
1477.17759	0.1330379546
1475.24916	0.1388247907
1473.32073	0.1450042576
1471.39230	0.1514651179
1469.46387	0.1580187827
1467.53544	0.1644544154
1465.60701	0.1705922633
1463.67858	0.1762867123
1461.75015	0.1814281791
1459.82172	0.1859346628
1457.89329	0.1897317618
1455.96486	0.1927676648
1454.03643	0.1950768828
1452.10800	0.1968241930
1450.17957	0.1982614100
1448.25114	0.1996340156
1446.32271	0.2011169791
1444.39428	0.2027888298
1442.46585	0.2046361864
1440.53742	0.2065914720
1438.60899	0.2085674852
1436.68056	0.2104727924
1434.75213	0.2122282982
1432.82370	0.2137786001
1430.89527	0.2150884420
1428.96684	0.2161353081
1427.03841	0.2168969065
1425.10998	0.2173539400
1423.18155	0.2174993008
1421.25312	0.2173203379
1419.32469	0.2167976648
1417.39626	0.2159239948
1415.46783	0.2147019804
1413.53940	0.2131432742
1411.61097	0.2112708390
1409.68253	0.2091194540
1407.75410	0.2067564577
1405.82567	0.2042786032
1403.89724	0.2017960250
1401.96881	0.1994375885
1400.04038	0.1973553300
1398.11195	0.1957414597
1396.18352	0.1948269457
1394.25509	0.1948144734
1392.32666	0.1958045512
1390.39823	0.1977559030
1388.46980	0.2005124986
1386.54137	0.2039108276
1384.61294	0.2078516632
1382.68451	0.2122780532
1380.75608	0.2171314955
1378.82765	0.2223160118
1376.89922	0.2276824862
1374.97079	0.2330478281
1373.04236	0.2382166982
1371.11393	0.2430110276
1369.18550	0.2472917587
1367.25707	0.2509372532
1365.32864	0.2538439631
1363.40021	0.2559368312
1361.47178	0.2571635842
1359.54335	0.2575133443
1357.61492	0.2570221424
1355.68649	0.2557624280
1353.75806	0.2538506985
1351.82963	0.2514371574
1349.90120	0.2486900985
1347.97277	0.2457877100
1346.04434	0.2428835332
1344.11591	0.2400901169
1342.18748	0.2374801338
1340.25904	0.2350787818
1338.33061	0.2328760475
1336.40218	0.2308427095
1334.47375	0.2289536446
1332.54532	0.2272357345
1330.61689	0.2257611006
1328.68846	0.2245970517
1326.76003	0.2238053679
1324.83160	0.2234319597
1322.90317	0.2234376222
1320.97474	0.2236375511
1319.04631	0.2237103432
1317.11788	0.2233028114
1315.18945	0.2221547216
1313.26102	0.2201522440
1311.33259	0.2173285335
1309.40416	0.2138312012
1307.47573	0.2098850012
1305.54730	0.2057822645
1303.61887	0.2018470168
1301.69044	0.1983789802
1299.76201	0.1956133097
1297.83358	0.1936820894
1295.90515	0.1925973147
1293.97672	0.1922685951
1292.04829	0.1925195158
1290.11986	0.1931235343
1288.19143	0.1938521564
1286.26300	0.1945002377
1284.33457	0.1949156672
1282.40614	0.1950243115
1280.47771	0.1948348135
1278.54928	0.1944447756
1276.62085	0.1940185577
1274.69242	0.1937406510
1272.76399	0.1937740892
1270.83555	0.1942090690
1268.90712	0.1950294226
1266.97869	0.1961282641
1265.05026	0.1973377019
1263.12183	0.1984712034
1261.19340	0.1993657649
1259.26497	0.1998977661
1257.33654	0.1999891996
1255.40811	0.1996041834
1253.47968	0.1987350583
1251.55125	0.1973997653
1249.62282	0.1956421435
1247.69439	0.1935298443
1245.76596	0.1911794245
1243.83753	0.1887664795
1241.90910	0.1864929646
1239.98067	0.1845422536
1238.05224	0.1830252409
1236.12381	0.1819243431
1234.19538	0.1810836792
1232.26695	0.1802376062
1230.33852	0.1790675670
1228.41009	0.1772837639
1226.48166	0.1746863574
1224.55323	0.1712250710
1222.62480	0.1670636833
1220.69637	0.1625469029
1218.76794	0.1580952555
1216.83951	0.1541524827
1214.91108	0.1511433721
1212.98265	0.1493965983
1211.05422	0.1490691900
1209.12579	0.1500777602
1207.19736	0.1520756781
1205.26893	0.1544726640
1203.34049	0.1565058976
1201.41206	0.1573984325
1199.48363	0.1565570831
1197.55520	0.1537338942
1195.62677	0.1491370946
1193.69834	0.1433296949
1191.76991	0.1370455027
1189.84148	0.1309889257
1187.91305	0.1256936044
1185.98462	0.1214942411
1184.05619	0.1185712740
1182.12776	0.1170168445
1180.19933	0.1169102341
1178.27090	0.1183543950
1176.34247	0.1214889660
1174.41404	0.1264998764
1172.48561	0.1335749328
1170.55718	0.1428450644
1168.62875	0.1543297768
1166.70032	0.1678540558
1164.77189	0.1829980165
1162.84346	0.1991234422
1160.91503	0.2154608667
1158.98660	0.2312446982
1157.05817	0.2457980514
1155.12974	0.2585154474
1153.20131	0.2688031793
1151.27288	0.2760474980
1149.34445	0.2797205150
1147.41602	0.2796939015
1145.48759	0.2766111791
1143.55916	0.2720532119
1141.63073	0.2682331204
1139.70230	0.2672099173
1137.77387	0.2700827420
1135.84544	0.2766683996
1133.91700	0.2858209908
1131.98857	0.2961865067
1130.06014	0.3068695366
1128.13171	0.3176101148
1126.20328	0.3285515308
1124.27485	0.3399084806
1122.34642	0.3518148065
1120.41799	0.3643917739
1118.48956	0.3778167367
1116.56113	0.3922605813
1114.63270	0.4077104330
1112.70427	0.4237632751
1110.77584	0.4395750761
1108.84741	0.4539741874
1106.91898	0.4656469226
1104.99055	0.4733748138
1103.06212	0.4762303233
1101.13369	0.4737787843
1099.20526	0.4664681852
1097.27683	0.4561360776
1095.34840	0.4462701976
1093.41997	0.4415275156
1091.49154	0.4463819861
1089.56311	0.4635515213
1087.63468	0.4929938912
1085.70625	0.5318450332
1083.77782	0.5752560496
1081.84939	0.6175894141
1079.92096	0.6534966230
1077.99253	0.6788380146
1076.06410	0.6914170384
1074.13567	0.6913764477
1072.20724	0.6810896397
1070.27881	0.6644940972
1068.35038	0.6461223364
1066.42195	0.6301434040
1064.49351	0.6195686460
1062.56508	0.6157805324
1060.63665	0.6184505820
1058.70822	0.6258552074
1056.77979	0.6355953217
1054.85136	0.6455589533
1052.92293	0.6548141837
1050.99450	0.6639851928
1049.06607	0.6748195291
1047.13764	0.6892353296
1045.20921	0.7084879875
1043.28078	0.7328776121
1041.35235	0.7618920207
1039.42392	0.7944531441
1037.49549	0.8291119337
1035.56706	0.8641390800
1033.63863	0.8975017667
1031.71020	0.9268532991
1029.78177	0.9497243166
1027.85334	0.9641043544
1025.92491	0.9693242311
1023.99648	0.9666274786
1022.06805	0.9587872624
1020.13962	0.9487693310
1018.21119	0.9383916259
1016.28276	0.9277598262
1014.35433	0.9153633714
1012.42590	0.8986141682
1010.49747	0.8747062683
1008.56904	0.8417487144
1006.64061	0.8000334501
1004.71218	0.7528461814
1002.78375	0.7061764002
1000.85532	0.6671083570
998.92689	0.6413285732
996.99845	0.6309097409
995.07002	0.6333343983
993.14159	0.6419734955
991.21316	0.6479663849
989.28473	0.6430385113
987.35630	0.6223025322
985.42787	0.5859513283
983.49944	0.5387316942
981.57101	0.4873891771
979.64258	0.4379537404
977.71415	0.3942673802
975.78572	0.3578372300
973.85729	0.3285298645
971.92886	0.3053725064
970.00043	0.2871116996
968.07200	0.2726009190
966.14357	0.2609319687
964.21514	0.2514145374
962.28671	0.2435704023
960.35828	0.2370563596
958.42985	0.2316146493
956.50142	0.2270758003
954.57299	0.2233022451
952.64456	0.2201862037
950.71613	0.2176605016
948.78770	0.2156611532
946.85927	0.2141660601
944.93084	0.2131986767
943.00241	0.2127855867
941.07398	0.2129991055
939.14555	0.2139662504
937.21712	0.2158643752
935.28869	0.2189316750
933.36026	0.2233659625
931.43183	0.2292443216
929.50340	0.2364909351
927.57496	0.2447938472
925.64653	0.2536414266
923.71810	0.2624290287
921.78967	0.2705278993
919.86124	0.2774334550
917.93281	0.2828819752
916.00438	0.2868773043
914.07595	0.2897549868
912.14752	0.2921262681
910.21909	0.2947193682
908.29066	0.2982323170
906.36223	0.3030479550
904.43380	0.3090138733
902.50537	0.3154901266
900.57694	0.3214935660
898.64851	0.3260591924
