3997.63597	-0.0024243274
3995.70754	-0.0024134642
3993.77911	-0.0024032185
3991.85068	-0.0023934362
3989.92225	-0.0023846317
3987.99382	-0.0023762905
3986.06539	-0.0023678977
3984.13696	-0.0023631605
3982.20853	-0.0023633149
3980.28010	-0.0023637267
3978.35167	-0.0023594531
3976.42324	-0.0023535830
3974.49481	-0.0023497210
3972.56638	-0.0023455501
3970.63795	-0.0023412248
3968.70952	-0.0023412248
3966.78109	-0.0023469406
3964.85266	-0.0023554368
3962.92423	-0.0023603283
3960.99580	-0.0023586806
3959.06737	-0.0023550247
3957.13894	-0.0023560547
3955.21051	-0.0023621307
3953.28207	-0.0023672283
3951.35364	-0.0023703177
3949.42521	-0.0023766509
3947.49678	-0.0023879269
3945.56835	-0.0023988422
3943.63992	-0.0024040937
3941.71149	-0.0024117138
3939.78306	-0.0024212899
3937.85463	-0.0024282401
3935.92620	-0.0024375070
3933.99777	-0.0024485756
3932.06934	-0.0024629899
3930.14091	-0.0024819339
3928.21248	-0.0024993843
3926.28405	-0.0025166280
3924.35562	-0.0025399961
3922.42719	-0.0025686123
3920.49876	-0.0025935215
3918.57033	-0.0026171426
3916.64190	-0.0026440560
3914.71347	-0.0026733344
3912.78504	-0.0026962308
3910.85661	-0.0027183546
3908.92818	-0.0027402197
3906.99975	-0.0027595630
3905.07132	-0.0027776710
3903.14289	-0.0028044200
3901.21446	-0.0028357964
3899.28603	-0.0028632618
3897.35760	-0.0028892856
3895.42917	-0.0029089823
3893.50074	-0.0029230213
3891.57231	-0.0029361346
3889.64388	-0.0029632850
3887.71545	-0.0029787107
3885.78701	-0.0029808702
3883.85858	-0.0029985062
3881.93015	-0.0030029279
3880.00172	-0.0030042133
3878.07329	-0.0030217455
3876.14486	-0.0030336217
3874.21643	-0.0030412306
3872.28800	-0.0030471941
3870.35957	-0.0030403051
3868.43114	-0.0030558310
3866.50271	-0.0030620000
3864.57428	-0.0030545457
3862.64585	-0.0030599951
3860.71742	-0.0030691456
3858.78899	-0.0030827171
3856.86056	-0.0030847217
3854.93213	-0.0030540831
3853.00370	-0.0030469885
3851.07527	-0.0030724357
3849.14684	-0.0030758285
3847.21841	-0.0030632853
3845.28998	-0.0030489422
3843.36155	-0.0030359866
3841.43312	-0.0030266298
3839.50469	-0.0030072469
3837.57626	-0.0029916165
3835.64783	-0.0029972722
3833.71940	-0.0029884800
3831.79097	-0.0029712035
3829.86254	-0.0029603026
3827.93411	-0.0029445165
3826.00568	-0.0029289352
3824.07725	-0.0029111421
3822.14882	-0.0028749367
3820.22039	-0.0028594045
3818.29196	-0.0028483465
3816.36352	-0.0028087408
3814.43509	-0.0027919202
3812.50666	-0.0027697489
3810.57823	-0.0027388306
3808.64980	-0.0027043601
3806.72137	-0.0026698869
3804.79294	-0.0026519289
3802.86451	-0.0026027334
3800.93608	-0.0025560029
3799.00765	-0.0025370622
3797.07922	-0.0024989725
3795.15079	-0.0024622693
3793.22236	-0.0024247908
3791.29393	-0.0023804095
3789.36550	-0.0023361268
3787.43707	-0.0022916850
3785.50864	-0.0022481659
3783.58021	-0.0022107204
3781.65178	-0.0021690475
3779.72335	-0.0021144908
3777.79492	-0.0020589996
3775.86649	-0.0020011310
3773.93806	-0.0019439245
3772.00963	-0.0018876899
3770.08120	-0.0018305717
3768.15277	-0.0017798394
3766.22434	-0.0017181690
3764.29591	-0.0016546332
3762.36748	-0.0015897985
3760.43905	-0.0015193307
3758.51062	-0.0014540114
3756.58219	-0.0013882178
3754.65376	-0.0013127107
3752.72533	-0.0012174692
3750.79690	-0.0011344451
3748.86847	-0.0010665373
3746.94003	-0.0009884431
3745.01160	-0.0008637319
3743.08317	-0.0007861697
3741.15474	-0.0007134522
3739.22631	-0.0006086184
3737.29788	-0.0004904691
3735.36945	-0.0003774604
3733.44102	-0.0002587308
3731.51259	-0.0001309632
3729.58416	-0.0000096812
3727.65573	0.0001327894
3725.72730	0.0002870149
3723.79887	0.0004500277
3721.87044	0.0006269186
3719.94201	0.0008149555
3718.01358	0.0010169811
3716.08515	0.0012290430
3714.15672	0.0014622203
3712.22829	0.0017130127
3710.29986	0.0019646520
3708.37143	0.0022406871
3706.44300	0.0025454867
3704.51457	0.0028801537
3702.58614	0.0032508858
3700.65771	0.0036481684
3698.72928	0.0040696445
3696.80085	0.0045241727
3694.87242	0.0050166231
3692.94399	0.0055557489
3691.01556	0.0061411737
3689.08713	0.0067815227
3687.15870	0.0074598421
3685.23027	0.0081969891
3683.30184	0.0090155415
3681.37341	0.0098975245
3679.44497	0.0108412271
3677.51654	0.0118688345
3675.58811	0.0129848067
3673.65968	0.0141530726
3671.73125	0.0154316854
3669.80282	0.0168035030
3667.87439	0.0182416756
3665.94596	0.0197768100
3664.01753	0.0213999152
3662.08910	0.0231061149
3660.16067	0.0248989761
3658.23224	0.0267753880
3656.30381	0.0287262853
3654.37538	0.0307346880
3652.44695	0.0328274891
3650.51852	0.0350040719
3648.59009	0.0372312143
3646.66166	0.0395042785
3644.73323	0.0418335982
3642.80480	0.0442161411
3640.87637	0.0466443114
3638.94794	0.0491243042
3637.01951	0.0516577251
3635.09108	0.0542359836
3633.16265	0.0568474904
3631.23422	0.0595053136
3629.30579	0.0622195937
3627.37736	0.0649489537
3625.44893	0.0677157640
3623.52050	0.0705346242
3621.59207	0.0734017193
3619.66364	0.0763204917
3617.73521	0.0792748630
3615.80678	0.0822653547
3613.87835	0.0853013396
3611.94992	0.0883794576
3610.02148	0.0915093198
3608.09305	0.0946891159
3606.16462	0.0979120433
3604.23619	0.1011860296
3602.30776	0.1045097411
3600.37933	0.1078805253
3598.45090	0.1112964377
3596.52247	0.1147604063
3594.59404	0.1182736680
3592.66561	0.1218300089
3590.73718	0.1254306734
3588.80875	0.1290878505
3586.88032	0.1327911764
3584.95189	0.1365275830
3583.02346	0.1403025985
3581.09503	0.1441229582
3579.16660	0.1479797214
3577.23817	0.1518619359
3575.30974	0.1557762325
3573.38131	0.1597302258
3571.45288	0.1637149900
3569.52445	0.1677238494
3567.59602	0.1717573851
3565.66759	0.1758127064
3563.73916	0.1798993796
3561.81073	0.1840165854
3559.88230	0.1881484389
3557.95387	0.1922848821
3556.02544	0.1964333504
3554.09701	0.2005998343
3552.16858	0.2047818899
3550.24015	0.2089758217
3548.31172	0.2131808251
3546.38329	0.2173872888
3544.45486	0.2215974480
3542.52643	0.2258239239
3540.59799	0.2300584316
3538.66956	0.2342868596
3536.74113	0.2385107875
3534.81270	0.2427370697
3532.88427	0.2469685823
3530.95584	0.2512027323
3529.02741	0.2554336488
3527.09898	0.2596518993
3525.17055	0.2638530135
3523.24212	0.2680498660
3521.31369	0.2722526491
3519.38526	0.2764518559
3517.45683	0.2806348205
3515.52840	0.2848036289
3513.59997	0.2889691889
3511.67154	0.2931367755
3509.74311	0.2972969115
3507.81468	0.3014318645
3505.88625	0.3055388927
3503.95782	0.3096326888
3502.02939	0.3137262166
3500.10096	0.3178202510
3498.17253	0.3219119012
3496.24410	0.3260009289
3494.31567	0.3300790787
3492.38724	0.3341357112
3490.45881	0.3381772041
3488.53038	0.3422095776
3486.60195	0.3462237418
3484.67352	0.3502223790
3482.74509	0.3542221785
3480.81666	0.3582212925
3478.88823	0.3622040153
3476.95980	0.3661750853
3475.03137	0.3701542914
3473.10293	0.3741360009
3471.17450	0.3780975938
3469.24607	0.3820441663
3467.31764	0.3859937191
3465.38921	0.3899433613
3463.46078	0.3938901126
3461.53235	0.3978335261
3459.60392	0.4017660916
3457.67549	0.4056908786
3455.74706	0.4096139371
3453.81863	0.4135298729
3451.89020	0.4174309373
3449.96177	0.4213177264
3448.03334	0.4251984060
3446.10491	0.4290761352
3444.17648	0.4329451025
3442.24805	0.4368057251
3440.31962	0.4406593740
3438.39119	0.4444946647
3436.46276	0.4483059943
3434.53433	0.4521057010
3432.60590	0.4558964372
3430.67747	0.4596662223
3428.74904	0.4634084105
3426.82061	0.4671278000
3424.89218	0.4708327055
3422.96375	0.4745154679
3421.03532	0.4781655967
3419.10689	0.4817915559
3417.17846	0.4853987396
3415.25003	0.4889755547
3413.32160	0.4925160110
3411.39317	0.4960245788
3409.46474	0.4994966090
3407.53631	0.5029165149
3405.60788	0.5062764883
3403.67944	0.5095770359
3401.75101	0.5128319860
3399.82258	0.5160638690
3397.89415	0.5192660689
3395.96572	0.5224040747
3394.03729	0.5254650116
3392.10886	0.5284702182
3390.18043	0.5314420462
3388.25200	0.5343732238
3386.32357	0.5372287631
3384.39514	0.5399948955
3382.46671	0.5426975489
3380.53828	0.5453487039
3378.60985	0.5479331613
3376.68142	0.5504391789
3374.75299	0.5528655052
3372.82456	0.5552250743
3370.89613	0.5575349331
3368.96770	0.5597931743
3367.03927	0.5619803071
3365.11084	0.5640909672
3363.18241	0.5661455989
3361.25398	0.5681549311
3359.32555	0.5701029301
3357.39712	0.5719766021
3355.46869	0.5737751722
3353.54026	0.5754932761
3351.61183	0.5771400332
3349.68340	0.5787451863
3347.75497	0.5803124309
3345.82654	0.5818204880
3343.89811	0.5832749009
3341.96968	0.5846869349
3340.04125	0.5860450268
3338.11282	0.5873470306
3336.18439	0.5886091590
3334.25595	0.5898383260
3332.32752	0.5910289884
3330.39909	0.5921819210
3328.47066	0.5932973623
3326.54223	0.5943689346
3324.61380	0.5953994989
3322.68537	0.5963959694
3320.75694	0.5973592997
3318.82851	0.5982913971
3316.90008	0.5991946459
3314.97165	0.6000788212
3313.04322	0.6009516120
3311.11479	0.6017962694
3309.18636	0.6025903225
3307.25793	0.6033452153
3305.32950	0.6040906906
3303.40107	0.6048302054
3301.47264	0.6055459380
3299.54421	0.6062300801
3297.61578	0.6068883538
3295.68735	0.6075255275
3293.75892	0.6081418991
3291.83049	0.6087343693
3289.90206	0.6092978120
3287.97363	0.6098231077
3286.04520	0.6102977395
3284.11677	0.6107254624
3282.18834	0.6111164093
3280.25991	0.6114658117
3278.33148	0.6117745042
3276.40305	0.6120581031
3274.47462	0.6123085022
3272.54619	0.6124944687
3270.61776	0.6126095653
3268.68933	0.6126735210
3266.76089	0.6126928329
3264.83246	0.6126545072
3262.90403	0.6125510335
3260.97560	0.6123875976
3259.04717	0.6121567488
3257.11874	0.6118357778
3255.19031	0.6114319563
3253.26188	0.6109756231
3251.33345	0.6104643941
3249.40502	0.6098743081
3247.47659	0.6091870070
3245.54816	0.6083922386
3243.61973	0.6075035334
3241.69130	0.6065427661
3239.76287	0.6055005789
3237.83444	0.6043536067
3235.90601	0.6030963659
3233.97758	0.6017476320
3232.04915	0.6003399491
3230.12072	0.5988721848
3228.19229	0.5973079205
3226.26386	0.5956233144
3224.33543	0.5938167572
3222.40700	0.5919082761
3220.47857	0.5899151564
3218.55014	0.5878238082
3216.62171	0.5856230855
3214.69328	0.5833238959
3212.76485	0.5809386373
3210.83642	0.5784678459
3208.90799	0.5758955479
3206.97956	0.5732088089
3205.05113	0.5704141855
3203.12270	0.5675298572
3201.19427	0.5645664930
3199.26584	0.5615100265
3197.33740	0.5583480000
3195.40897	0.5550901890
3193.48054	0.5517477989
3191.55211	0.5483368039
3189.62368	0.5448598266
3187.69525	0.5412982106
3185.76682	0.5376515388
3183.83839	0.5339265466
3181.90996	0.5301170945
3179.98153	0.5262266397
3178.05310	0.5222660303
3176.12467	0.5182470679
3174.19624	0.5141823888
3172.26781	0.5100638866
3170.33938	0.5058756471
3168.41095	0.5016255379
3166.48252	0.4973297715
3164.55409	0.4929868579
3162.62566	0.4885885119
3160.69723	0.4841367900
3158.76880	0.4796369076
3156.84037	0.4750851989
3154.91194	0.4704795480
3152.98351	0.4658404589
3151.05508	0.4611925781
3149.12665	0.4565247595
3147.19822	0.4518132806
3145.26979	0.4470632970
3143.34136	0.4422897696
3141.41293	0.4374949932
3139.48450	0.4326821268
3137.55607	0.4278620481
3135.62764	0.4230321944
3133.69921	0.4181841016
3131.77078	0.4133237004
3129.84235	0.4084602594
3127.91391	0.4035932124
3125.98548	0.3987136185
3124.05705	0.3938202858
3122.12862	0.3889265358
3120.20019	0.3840483427
3118.27176	0.3791894913
3116.34333	0.3743441701
3114.41490	0.3695085645
3112.48647	0.3646793962
3110.55804	0.3598586023
3108.62961	0.3550559282
3106.70118	0.3502774537
3104.77275	0.3455192745
3102.84432	0.3407744467
3100.91589	0.3360421956
3098.98746	0.3313317597
3097.05903	0.3266500831
3095.13060	0.3219905496
3093.20217	0.3173511028
3091.27374	0.3127416968
3089.34531	0.3081701696
3087.41688	0.3036332428
3085.48845	0.2991254032
3083.56002	0.2946524620
3081.63159	0.2902178466
3079.70316	0.2858169675
3077.77473	0.2814534307
3075.84630	0.2771346271
3073.91787	0.2728626132
3071.98944	0.2686315179
3070.06101	0.2644354403
3068.13258	0.2602759898
3066.20415	0.2561613619
3064.27572	0.2520979643
3062.34729	0.2480821908
3060.41885	0.2441121191
3058.49042	0.2401875854
3056.56199	0.2363110483
3054.63356	0.2324872911
3052.70513	0.2287163287
3050.77670	0.2249974608
3048.84827	0.2213325649
3046.91984	0.2177194208
3044.99141	0.2141569406
3043.06298	0.2106536329
3041.13455	0.2072123140
3039.20612	0.2038262188
3037.27769	0.2004949600
3035.34926	0.1972204894
3033.42083	0.1940007955
3031.49240	0.1908416599
3029.56397	0.1877504438
3027.63554	0.1847257912
3025.70711	0.1817622334
3023.77868	0.1788559109
3021.85025	0.1760127395
3019.92182	0.1732448488
3017.99339	0.1705543101
3016.06496	0.1679427922
3014.13653	0.1654179990
3012.20810	0.1629816443
3010.27967	0.1606333107
3008.35124	0.1583829373
3006.42281	0.1562482417
3004.49438	0.1542388648
3002.56595	0.1523551345
3000.63752	0.1506057978
2998.70909	0.1490111053
2996.78066	0.1475807577
2994.85223	0.1463259757
2992.92380	0.1452570707
2990.99536	0.1443738788
2989.06693	0.1436758786
2987.13850	0.1431693137
2985.21007	0.1428553015
2983.28164	0.1427163184
2981.35321	0.1427253336
2979.42478	0.1428600848
2977.49635	0.1430970132
2975.56792	0.1434140056
2973.63949	0.1437983811
2971.71106	0.1442455053
2969.78263	0.1447666585
2967.85420	0.1453977376
2965.92577	0.1461845338
2963.99734	0.1471661329
2962.06891	0.1483738720
2960.14048	0.1498318166
2958.21205	0.1515606642
2956.28362	0.1535709947
2954.35519	0.1558423191
2952.42676	0.1583252400
2950.49833	0.1609653980
2948.56990	0.1637076586
2946.64147	0.1664777696
2944.71304	0.1691869497
2942.78461	0.1717583388
2940.85618	0.1741337925
2938.92775	0.1762701273
2936.99932	0.1781406850
2935.07089	0.1797345877
2933.14246	0.1810452789
2931.21403	0.1820674986
2929.28560	0.1828068495
2927.35717	0.1832818836
2925.42874	0.1835151017
2923.50031	0.1835277081
2921.57187	0.1833461672
2919.64344	0.1830055118
2917.71501	0.1825494617
2915.78658	0.1820378155
2913.85815	0.1815311313
2911.92972	0.1810427159
2910.00129	0.1805472821
2908.07286	0.1800326705
2906.14443	0.1795150489
2904.21600	0.1790240556
2902.28757	0.1785803884
2900.35914	0.1781887561
2898.43071	0.1778446883
2896.50228	0.1775347441
2894.57385	0.1772317886
2892.64542	0.1768950820
2890.71699	0.1764783859
2888.78856	0.1759353429
2886.86013	0.1752250642
2884.93170	0.1743220389
2883.00327	0.1732221991
2881.07484	0.1719419509
2879.14641	0.1705067754
2877.21798	0.1689479798
2875.28955	0.1673032939
2873.36112	0.1655998230
2871.43269	0.1638401747
2869.50426	0.1620115191
2867.57583	0.1600996703
2865.64740	0.1580894440
2863.71897	0.1559649557
2861.79054	0.1537208855
2859.86211	0.1513650417
2857.93368	0.1489171386
2856.00525	0.1464022994
2854.07681	0.1438381076
2852.14838	0.1412462592
2850.21995	0.1386693120
2848.29152	0.1361450553
2846.36309	0.1336770505
2844.43466	0.1312485486
2842.50623	0.1288530976
2840.57780	0.1265018433
2838.64937	0.1242079884
2836.72094	0.1219768375
2834.79251	0.1198154539
2832.86408	0.1177328676
2830.93565	0.1157301888
2829.00722	0.1138047203
2827.07879	0.1119572893
2825.15036	0.1101838052
2823.22193	0.1084763408
2821.29350	0.1068298221
2819.36507	0.1052411050
2817.43664	0.1037092879
2815.50821	0.1022337601
2813.57978	0.1008118689
2811.65135	0.0994378328
2809.72292	0.0981043428
2807.79449	0.0968080908
2805.86606	0.0955474377
2803.93763	0.0943175778
2802.00920	0.0931160823
2800.08077	0.0919438452
2798.15234	0.0907969028
2796.22391	0.0896715969
2794.29548	0.0885716751
2792.36705	0.0874994770
2790.43862	0.0864500478
2788.51019	0.0854171067
2786.58176	0.0844023302
2784.65332	0.0834136978
2782.72489	0.0824539438
2780.79646	0.0815190449
2778.86803	0.0806071609
2776.93960	0.0797219053
2775.01117	0.0788652748
2773.08274	0.0780338719
2771.15431	0.0772264749
2769.22588	0.0764471591
2767.29745	0.0756989419
2765.36902	0.0749795735
2763.44059	0.0742864236
2761.51216	0.0736213401
2759.58373	0.0729891509
2757.65530	0.0723910928
2755.72687	0.0718252808
2753.79844	0.0712928399
2751.87001	0.0707941428
2749.94158	0.0703242868
2748.01315	0.0698800609
2746.08472	0.0694636479
2744.15629	0.0690739527
2742.22786	0.0687066764
2740.29943	0.0683591887
2738.37100	0.0680299997
2736.44257	0.0677163079
2734.51414	0.0674117878
2732.58571	0.0671117976
2730.65728	0.0668141693
2728.72885	0.0665151626
2726.80042	0.0662120879
2724.87199	0.0659034997
2722.94356	0.0655861273
2721.01513	0.0652590021
2719.08670	0.0649203956
2717.15827	0.0645655990
2715.22983	0.0641937107
2713.30140	0.0638070032
2711.37297	0.0634044930
2709.44454	0.0629818812
2707.51611	0.0625371709
2705.58768	0.0620737448
2703.65925	0.0615932718
2701.73082	0.0610902980
2699.80239	0.0605610274
2697.87396	0.0600096695
2695.94553	0.0594412833
2694.01710	0.0588558875
2692.08867	0.0582508259
2690.16024	0.0576278605
2688.23181	0.0569911823
2686.30338	0.0563402846
2684.37495	0.0556737036
2682.44652	0.0549945720
2680.51809	0.0543037690
2678.58966	0.0536012352
2676.66123	0.0528912134
2674.73280	0.0521787554
2672.80437	0.0514643490
2670.87594	0.0507425033
2668.94751	0.0500119813
2667.01908	0.0492790304
2665.09065	0.0485422798
2663.16222	0.0477923267
2661.23379	0.0470240191
2659.30536	0.0462371185
2657.37693	0.0454370938
2655.44850	0.0446314849
2653.52007	0.0438226722
2651.59164	0.0430139042
2649.66321	0.0422110036
2647.73477	0.0414166190
2645.80634	0.0406334363
2643.87791	0.0398641154
2641.94948	0.0391073190
2640.02105	0.0383628383
2638.09262	0.0376350433
2636.16419	0.0369266123
2634.23576	0.0362372063
2632.30733	0.0355674922
2630.37890	0.0349156410
2628.45047	0.0342800021
2626.52204	0.0336631946
2624.59361	0.0330666229
2622.66518	0.0324864872
2620.73675	0.0319218636
2618.80832	0.0313797072
2616.87989	0.0308652110
2614.95146	0.0303775016
2613.02303	0.0299110003
2611.09460	0.0294608157
2609.16617	0.0290309694
2607.23774	0.0286262929
2605.30931	0.0282402802
2603.38088	0.0278640781
2601.45245	0.0274978001
2599.52402	0.0271513369
2597.59559	0.0268284194
2595.66716	0.0265235975
2593.73873	0.0262375791
2591.81030	0.0259699412
2589.88187	0.0257060919
2587.95344	0.0254400708
2586.02501	0.0251872148
2584.09658	0.0249552876
2582.16815	0.0247366652
2580.23972	0.0245242864
2578.31128	0.0243146960
2576.38285	0.0241093114
2574.45442	0.0239120368
2572.52599	0.0237207301
2570.59756	0.0235432256
2568.66913	0.0233852975
2566.74070	0.0232330542
2564.81227	0.0230806991
2562.88384	0.0229317285
2560.95541	0.0227831062
2559.02698	0.0226389002
2557.09855	0.0225062463
2555.17012	0.0223839637
2553.24169	0.0222667269
2551.31326	0.0221523829
2549.38483	0.0220421273
2547.45640	0.0219345950
2545.52797	0.0218291301
2543.59954	0.0217256509
2541.67111	0.0216225218
2539.74268	0.0215284228
2537.81425	0.0214450844
2535.88582	0.0213617906
2533.95739	0.0212726127
2532.02896	0.0211750548
2530.10053	0.0210656449
2528.17210	0.0209418647
2526.24367	0.0208110325
2524.31524	0.0206880849
2522.38681	0.0205777921
2520.45838	0.0204736609
2518.52995	0.0203650780
2516.60152	0.0202509072
2514.67309	0.0201369040
2512.74466	0.0200233366
2510.81623	0.0199127514
2508.88779	0.0198111366
2506.95936	0.0197151806
2505.03093	0.0196251478
2503.10250	0.0195422564
2501.17407	0.0194507446
2499.24564	0.0193426888
2497.31721	0.0192263778
2495.38878	0.0191094503
2493.46035	0.0189969093
2491.53192	0.0188833140
2489.60349	0.0187651552
2487.67506	0.0186465140
2485.74663	0.0185223948
2483.81820	0.0183868334
2481.88977	0.0182448607
2479.96134	0.0180977546
2478.03291	0.0179396365
2476.10448	0.0177683346
2474.17605	0.0175900664
2472.24762	0.0174127854
2470.31919	0.0172327776
2468.39076	0.0170396790
2466.46233	0.0168416332
2464.53390	0.0166480895
2462.60547	0.0164517537
2460.67704	0.0162527673
2458.74861	0.0160599146
2456.82018	0.0158733241
2454.89175	0.0156850964
2452.96332	0.0154981557
2451.03489	0.0153268762
2449.10646	0.0151704606
2447.17803	0.0150179341
2445.24960	0.0148614692
2443.32117	0.0146925552
2441.39273	0.0145139378
2439.46430	0.0143457484
2437.53587	0.0142020956
2435.60744	0.0140751759
2433.67901	0.0139494156
2431.75058	0.0138239050
2429.82215	0.0137053505
2427.89372	0.0135873090
2425.96529	0.0134630250
2424.03686	0.0133349057
2422.10843	0.0132004730
2420.18000	0.0130650150
2418.25157	0.0129384799
2416.32314	0.0128184604
2414.39471	0.0126993004
2412.46628	0.0125830248
2410.53785	0.0124769295
2408.60942	0.0123851355
2406.68099	0.0122990608
2404.75256	0.0122118043
2402.82413	0.0121342549
2400.89570	0.0120803276
2398.96727	0.0120453024
2397.03884	0.0120149367
2395.11041	0.0119857704
2393.18198	0.0119640836
2391.25355	0.0119554894
2389.32512	0.0119602261
2387.39669	0.0119709224
2385.46826	0.0119785592
2383.53983	0.0119816996
2381.61140	0.0119896829
2379.68297	0.0120105725
2377.75454	0.0120377969
2375.82611	0.0120641720
2373.89768	0.0120923584
2371.96924	0.0121211587
2370.04081	0.0121475123
2368.11238	0.0121751977
2366.18395	0.0122062135
2364.25552	0.0122394683
2362.32709	0.0122722993
2360.39866	0.0123004718
2358.47023	0.0123236934
2356.54180	0.0123434011
2354.61337	0.0123594338
2352.68494	0.0123719256
2350.75651	0.0123787168
2348.82808	0.0123783704
2346.89965	0.0123787438
2344.97122	0.0123883588
2343.04279	0.0124066845
2341.11436	0.0124221863
2339.18593	0.0124165658
2337.25750	0.0123903034
2335.32907	0.0123691019
2333.40064	0.0123684360
2331.47221	0.0123805543
2329.54378	0.0124003179
2327.61535	0.0124374768
2325.68692	0.0124842022
2323.75849	0.0124930199
2321.83006	0.0124373436
2319.90163	0.0123619372
2317.97320	0.0123139471
2316.04477	0.0122872377
2314.11634	0.0122702755
2312.18791	0.0122684110
2310.25948	0.0122815659
2308.33105	0.0122974366
2306.40262	0.0123053985
2304.47419	0.0123132011
2302.54575	0.0123399654
2300.61732	0.0123886522
2298.68889	0.0124480790
2296.76046	0.0125173181
2294.83203	0.0126015972
2292.90360	0.0127001805
2290.97517	0.0128143011
2289.04674	0.0129499743
2287.11831	0.0131046586
2285.18988	0.0132625466
2283.26145	0.0134066893
2281.33302	0.0135330139
2279.40459	0.0136568099
2277.47616	0.0137967821
2275.54773	0.0139433211
2273.61930	0.0140753360
2271.69087	0.0141938049
2269.76244	0.0143030221
2267.83401	0.0144044263
2265.90558	0.0145068448
2263.97715	0.0146036660
2262.04872	0.0146855935
2260.12029	0.0147675630
2258.19186	0.0148671474
2256.26343	0.0149773657
2254.33500	0.0150907738
2252.40657	0.0152047202
2250.47814	0.0153088029
2248.54971	0.0154160215
2246.62128	0.0155475195
2244.69285	0.0156754348
2242.76442	0.0158052668
2240.83599	0.0159442667
2238.90756	0.0160277095
2236.97913	0.0160638373
2235.05069	0.0161619186
2233.12226	0.0163129941
2231.19383	0.0164081752
2229.26540	0.0164477751
2227.33697	0.0164851733
2225.40854	0.0165228453
2223.48011	0.0165606812
2221.55168	0.0166069642
2219.62325	0.0166730769
2217.69482	0.0167199913
2215.76639	0.0166821424
2213.83796	0.0166085511
2211.90953	0.0166194700
2209.98110	0.0167053845
2208.05267	0.0167489387
2206.12424	0.0167453345
2204.19581	0.0168293081
2202.26738	0.0170422085
2200.33895	0.0172653683
2198.41052	0.0173901804
2196.48209	0.0174484905
2194.55366	0.0175412241
2192.62523	0.0177184232
2190.69680	0.0179316252
2188.76837	0.0180910621
2186.83994	0.0181260649
2184.91151	0.0179977231
2182.98308	0.0177048594
2181.05465	0.0172960758
2179.12622	0.0168604963
2177.19779	0.0163942501
2175.26936	0.0158203803
2173.34093	0.0151661448
2171.41250	0.0144818472
2169.48407	0.0137667749
2167.55564	0.0130135594
2165.62720	0.0121554714
2163.69877	0.0109455166
2161.77034	0.0092628021
2159.84191	0.0076319720
2157.91348	0.0070291189
2155.98505	0.0075310562
2154.05662	0.0083661918
2152.12819	0.0092316521
2150.19976	0.0101659037
2148.27133	0.0110807391
2146.34290	0.0118367253
2144.41447	0.0124396877
2142.48604	0.0130396998
2140.55761	0.0136671755
2138.62918	0.0142483162
2136.70075	0.0148069607
2134.77232	0.0154135535
2132.84389	0.0160528515
2130.91546	0.0166282393
2128.98703	0.0170723088
2127.05860	0.0174216237
2125.13017	0.0177133810
2123.20174	0.0179288723
2121.27331	0.0180855300
2119.34488	0.0182081740
2117.41645	0.0182489101
2115.48802	0.0181774832
2113.55959	0.0180221144
2111.63116	0.0178262647
2109.70273	0.0176305287
2107.77430	0.0174536090
2105.84587	0.0172982849
2103.91744	0.0171512831
2101.98901	0.0169782732
2100.06058	0.0167616382
2098.13215	0.0164431240
2096.20371	0.0161541011
2094.27528	0.0160557516
2092.34685	0.0160988923
2090.41842	0.0160941649
2088.48999	0.0159439985
2086.56156	0.0156797282
2084.63313	0.0153702395
2082.70470	0.0149825364
2080.77627	0.0145626813
2078.84784	0.0141132530
2076.91941	0.0136051504
2074.99098	0.0130535448
2073.06255	0.0124917412
2071.13412	0.0119576445
2069.20569	0.0114866085
2067.27726	0.0111040818
2065.34883	0.0108140502
2063.42040	0.0105518214
2061.49197	0.0102417506
2059.56354	0.0098964656
2057.63511	0.0095543126
2055.70668	0.0091761267
2053.77825	0.0086192349
2051.84982	0.0075736218
2049.92139	0.0058510257
2047.99296	0.0039712777
2046.06453	0.0026609553
2044.13610	0.0018154446
2042.20767	0.0009361648
2040.27924	-0.0001444197
2038.35081	-0.0013231369
2036.42238	-0.0025641348
2034.49395	-0.0038355696
2032.56552	-0.0048419549
2030.63709	-0.0053696898
2028.70865	-0.0055877799
2026.78022	-0.0057312734
2024.85179	-0.0058376365
2022.92336	-0.0058607245
2020.99493	-0.0057738833
2019.06650	-0.0055787847
2017.13807	-0.0053974558
2015.20964	-0.0052367165
2013.28121	-0.0050043757
2011.35278	-0.0049092751
2009.42435	-0.0050479779
2007.49592	-0.0048804539
2005.56749	-0.0039783604
2003.63906	-0.0026277434
2001.71063	-0.0013326855
1999.78220	-0.0004463553
1997.85377	-0.0000103025
1995.92534	0.0001731858
1993.99691	0.0001773810
1992.06848	-0.0000309585
1990.14005	-0.0003991852
1988.21162	-0.0008230664
1986.28319	-0.0012685769
1984.35476	-0.0018512444
1982.42633	-0.0029222500
1980.49790	-0.0048173792
1978.56947	-0.0071006585
1976.64104	-0.0084318211
1974.71261	-0.0081516989
1972.78418	-0.0070007173
1970.85575	-0.0056662783
1968.92732	-0.0042740037
1966.99889	-0.0029715635
1965.07046	-0.0018894940
1963.14203	-0.0008839857
1961.21360	0.0002273124
1959.28516	0.0014718565
1957.35673	0.0027675186
1955.42830	0.0039740987
1953.49987	0.0049734954
1951.57144	0.0057049622
1949.64301	0.0062132748
1947.71458	0.0066470532
1945.78615	0.0070653995
1943.85772	0.0074220276
1941.92929	0.0077276146
1940.00086	0.0080124270
1938.07243	0.0082521252
1936.14400	0.0084345462
1934.21557	0.0085883690
1932.28714	0.0087304404
1930.35871	0.0088621750
1928.43028	0.0089819254
1926.50185	0.0090910820
1924.57342	0.0092133805
1922.64499	0.0093551008
1920.71656	0.0094583724
1918.78813	0.0094796969
1916.85970	0.0094464151
1914.93127	0.0094272355
1913.00284	0.0094399070
1911.07441	0.0094603570
1909.14598	0.0094889300
1907.21755	0.0095325084
1905.28912	0.0095865969
1903.36069	0.0096386010
1901.43226	0.0096763186
1899.50383	0.0096986322
1897.57540	0.0097171096
1895.64697	0.0097594662
1893.71854	0.0098232208
1891.79011	0.0098678656
1889.86167	0.0098896595
1887.93324	0.0099158511
1886.00481	0.0099612735
1884.07638	0.0100162104
1882.14795	0.0100650070
1880.21952	0.0101117697
1878.29109	0.0101611605
1876.36266	0.0102017056
1874.43423	0.0102313617
1872.50580	0.0102660554
1870.57737	0.0103145093
1868.64894	0.0103646917
1866.72051	0.0104118316
1864.79208	0.0104651283
1862.86365	0.0105271833
1860.93522	0.0105978148
1859.00679	0.0106595969
1857.07836	0.0107109863
1855.14993	0.0107779326
1853.22150	0.0108619025
1851.29307	0.0109554715
1849.36464	0.0110709937
1847.43621	0.0112048751
1845.50778	0.0113501698
1843.57935	0.0114943702
1841.65092	0.0116354804
1839.72249	0.0118014803
1837.79406	0.0119884051
1835.86563	0.0121855009
1833.93720	0.0123795429
1832.00877	0.0125622936
1830.08034	0.0127382437
1828.15191	0.0129011991
1826.22348	0.0130514102
1824.29505	0.0131713878
1822.36661	0.0132671371
1820.43818	0.0133991335
1818.50975	0.0136572374
1816.58132	0.0140753360
1814.65289	0.0145558016
1812.72446	0.0149762398
1810.79603	0.0153053440
1808.86760	0.0155764697
1806.93917	0.0158238430
1805.01074	0.0160637572
1803.08231	0.0163099840
1801.15388	0.0165704153
1799.22545	0.0168424137
1797.29702	0.0171203427
1795.36859	0.0174033828
1793.44016	0.0177006796
1791.51173	0.0180023648
1789.58330	0.0183041226
1787.65487	0.0186181143
1785.72644	0.0189380664
1783.79801	0.0192569550
1781.86958	0.0195872337
1779.94115	0.0199380368
1778.01272	0.0203126688
1776.08429	0.0207256600
1774.15586	0.0211776644
1772.22743	0.0216358546
1770.29900	0.0220768508
1768.37057	0.0225364268
1766.44214	0.0229986459
1764.51371	0.0234766863
1762.58528	0.0239908416
1760.65685	0.0245202333
1758.72842	0.0250710845
1756.79999	0.0256537758
1754.87156	0.0262517687
1752.94312	0.0268886983
1751.01469	0.0275661144
1749.08626	0.0282680169
1747.15783	0.0290160794
1745.22940	0.0298105944
1743.30097	0.0306567326
1741.37254	0.0315683484
1739.44411	0.0325461328
1737.51568	0.0335755125
1735.58725	0.0346918888
1733.65882	0.0358711965
1731.73039	0.0370824970
1729.80196	0.0383799151
1727.87353	0.0397610739
1725.94510	0.0412241630
1724.01667	0.0427752025
1722.08824	0.0444102436
1720.15981	0.0461533070
1718.23138	0.0480356216
1716.30295	0.0500310659
1714.37452	0.0521570705
1712.44609	0.0544377267
1710.51766	0.0568789467
1708.58923	0.0594901741
1706.66080	0.0622822419
1704.73237	0.0652471781
1702.80394	0.0684018880
1700.87551	0.0717903376
1698.94708	0.0753512383
1697.01865	0.0791358426
1695.09022	0.0831462517
1693.16179	0.0873371363
1691.23336	0.0917552412
1689.30493	0.0963734612
1687.37650	0.1011818126
1685.44807	0.1062195674
1683.51963	0.1114213467
1681.59120	0.1167449877
1679.66277	0.1222090125
1677.73434	0.1277835071
1675.80591	0.1334573478
1673.87748	0.1391667575
1671.94905	0.1448894292
1670.02062	0.1506129801
1668.09219	0.1562712789
1666.16376	0.1618242413
1664.23533	0.1672545522
1662.30690	0.1725056022
1660.37847	0.1775192767
1658.45004	0.1822619736
1656.52161	0.1866913885
1654.59318	0.1908122152
1652.66475	0.1945378333
1650.73632	0.1977442652
1648.80789	0.2004733682
1646.87946	0.2026859075
1644.95103	0.2042916566
1643.02260	0.2052678168
1641.09417	0.2055980414
1639.16574	0.2052350044
1637.23731	0.2041676641
1635.30888	0.2023803741
1633.38045	0.1998690069
1631.45202	0.1967024356
1629.52359	0.1929056048
1627.59516	0.1885189265
1625.66673	0.1836217642
1623.73830	0.1783098876
1621.80987	0.1726582348
1619.88144	0.1667867899
1617.95301	0.1608171463
1616.02457	0.1547921449
1614.09614	0.1488009840
1612.16771	0.1429740489
1610.23928	0.1373444051
1608.31085	0.1319517195
1606.38242	0.1268334091
1604.45399	0.1220087186
1602.52556	0.1174898744
1600.59713	0.1132803038
1598.66870	0.1093744710
1596.74027	0.1057610884
1594.81184	0.1024204791
1592.88341	0.0993326232
1590.95498	0.0964878500
1589.02655	0.0938815102
1587.09812	0.0915261656
1585.16969	0.0894412026
1583.24126	0.0876152292
1581.31283	0.0859915763
1579.38440	0.0845050886
1577.45597	0.0831435248
1575.52754	0.0818758458
1573.59911	0.0806891322
1571.67068	0.0796343610
1569.74225	0.0786827952
1567.81382	0.0778026581
1565.88539	0.0770171136
1563.95696	0.0763166398
1562.02853	0.0756959841
1560.10010	0.0751717985
1558.17167	0.0746822134
1556.24324	0.0742332339
1554.31481	0.0738827139
1552.38638	0.0735926405
1550.45795	0.0733648166
1548.52952	0.0731929988
1546.60108	0.0730807558
1544.67265	0.0730241239
1542.74422	0.0730176941
1540.81579	0.0730728507
1538.88736	0.0731632784
1536.95893	0.0732824057
1535.03050	0.0734846741
1533.10207	0.0737365782
1531.17364	0.0740151480
1529.24521	0.0743507519
1527.31678	0.0747455806
1525.38835	0.0751945451
1523.45992	0.0757102817
1521.53149	0.0763128400
1519.60306	0.0769728571
1517.67463	0.0777299628
1515.74620	0.0785939097
1513.81777	0.0795694739
1511.88934	0.0806726068
1509.96091	0.0819109529
1508.03248	0.0833287314
1506.10405	0.0849152729
1504.17562	0.0866431817
1502.24719	0.0885709450
1500.31876	0.0907109901
1498.39033	0.0930698663
1496.46190	0.0956645459
1494.53347	0.0984872207
1492.60504	0.1015689448
1490.67661	0.1049373299
1488.74818	0.1085900739
1486.81975	0.1125500426
1484.89132	0.1168415919
1482.96289	0.1215032116
1481.03446	0.1265718192
1479.10603	0.1320775151
1477.17759	0.1380427927
1475.24916	0.1444498301
1473.32073	0.1512483805
1471.39230	0.1583037972
1469.46387	0.1654295176
1467.53544	0.1724267006
1465.60701	0.1791020036
1463.67858	0.1852849126
1461.75015	0.1908672899
1459.82172	0.1957888752
1457.89329	0.1999978870
1455.96486	0.2034090459
1454.03643	0.2060488015
1452.10800	0.2080947757
1450.17957	0.2097618431
1448.25114	0.2113052756
1446.32271	0.2129233181
1444.39428	0.2147274017
1442.46585	0.2167258561
1440.53742	0.2188577056
1438.60899	0.2210525274
1436.68056	0.2232126892
1434.75213	0.2252178788
1432.82370	0.2270312756
1430.89527	0.2286120206
1428.96684	0.2299158275
1427.03841	0.2309210747
1425.10998	0.2316129655
1423.18155	0.2319644690
1421.25312	0.2319645137
1419.32469	0.2315970510
1417.39626	0.2308262885
1415.46783	0.2296766639
1413.53940	0.2281558663
1411.61097	0.2262722254
1409.68253	0.2240615338
1407.75410	0.2215971500
1405.82567	0.2189777792
1403.89724	0.2163139582
1401.96881	0.2137528956
1400.04038	0.2114713341
1398.11195	0.2096678168
1396.18352	0.2085966021
1394.25509	0.2084829211
1392.32666	0.2094347179
1390.39823	0.2114346474
1388.46980	0.2143255770
1386.54137	0.2179211825
1384.61294	0.2221166492
1382.68451	0.2268556952
1380.75608	0.2320559919
1378.82765	0.2376079708
1376.89922	0.2433568388
1374.97079	0.2491139472
1373.04236	0.2546744347
1371.11393	0.2598625124
1369.18550	0.2645432949
1367.25707	0.2685850859
1365.32864	0.2718810141
1363.40021	0.2743494809
1361.47178	0.2759175599
1359.54335	0.2765629888
1357.61492	0.2763127387
1355.68649	0.2752231956
1353.75806	0.2734026313
1351.82963	0.2710028589
1349.90120	0.2681973577
1347.97277	0.2651751637
1346.04434	0.2621081769
1344.11591	0.2591288090
1342.18748	0.2563247085
1340.25904	0.2537274063
1338.33061	0.2513276637
1336.40218	0.2491047084
1334.47375	0.2470457107
1332.54532	0.2451872677
1330.61689	0.2436031997
1328.68846	0.2423552573
1326.76003	0.2415037900
1324.83160	0.2410951853
1322.90317	0.2410824299
1320.97474	0.2412745804
1319.04631	0.2413431704
1317.11788	0.2409120351
1315.18945	0.2396888286
1313.26102	0.2375289798
1311.33259	0.2344447225
1309.40416	0.2305785269
1307.47573	0.2261648029
1305.54730	0.2215194553
1303.61887	0.2170021087
1301.69044	0.2129514217
1299.76201	0.2096405923
1297.83358	0.2072330415
1295.90515	0.2057665884
1293.97672	0.2051727623
1292.04829	0.2052815109
1290.11986	0.2058539093
1288.19143	0.2066429555
1286.26300	0.2074204683
1284.33457	0.2080091387
1282.40614	0.2083113492
1280.47771	0.2083138973
1278.54928	0.2080944479
1276.62085	0.2078046650
1274.69242	0.2076284289
1272.76399	0.2077358365
1270.83555	0.2082289308
1268.90712	0.2091062665
1266.97869	0.2102735341
1265.05026	0.2115713507
1263.12183	0.2128146589
1261.19340	0.2138334811
1259.26497	0.2144863605
1257.33654	0.2146736830
1255.40811	0.2143468261
1253.47968	0.2134940624
1251.55125	0.2121287286
1249.62282	0.2102882862
1247.69439	0.2080370635
1245.76596	0.2054930776
1243.83753	0.2028364837
1241.90910	0.2002798766
1239.98067	0.1980283856
1238.05224	0.1962202638
1236.12381	0.1948618591
1234.19538	0.1938174516
1232.26695	0.1928281635
1230.33852	0.1915594488
1228.41009	0.1896837652
1226.48166	0.1869519204
1224.55323	0.1832682341
1222.62480	0.1787707657
1220.69637	0.1738031209
1218.76794	0.1688040048
1216.83951	0.1642611325
1214.91108	0.1606689095
1212.98265	0.1584317684
1211.05422	0.1577664614
1209.12579	0.1586198211
1207.19736	0.1606428623
1205.26893	0.1632134318
1203.34049	0.1655081511
1201.41206	0.1666668653
1199.48363	0.1659967303
1197.55520	0.1631539166
1195.62677	0.1582751125
1193.69834	0.1519088000
1191.76991	0.1448372155
1189.84148	0.1378609836
1187.91305	0.1316245049
1185.98462	0.1265611947
1184.05619	0.1229228675
1182.12776	0.1208425239
1180.19933	0.1204154864
1178.27090	0.1217484921
1176.34247	0.1249847114
1174.41404	0.1303110719
1172.48561	0.1379128247
1170.55718	0.1479191929
1168.62875	0.1603394151
1166.70032	0.1749725938
1164.77189	0.1913659126
1162.84346	0.2088474631
1160.91503	0.2266149819
1158.98660	0.2438743114
1157.05817	0.2599248588
1155.12974	0.2741401792
1153.20131	0.2858995795
1151.27288	0.2945384681
1149.34445	0.2994465828
1147.41602	0.3003896475
1145.48759	0.2979094088
1143.55916	0.2935507596
1141.63073	0.2896216810
1139.70230	0.2883864343
1137.77387	0.2911573946
1135.84544	0.2978758812
1133.91700	0.3074040413
1131.98857	0.3183174431
1130.06014	0.3296346366
1128.13171	0.3410443068
1126.20328	0.3526859581
1124.27485	0.3647914827
1122.34642	0.3774950206
1120.41799	0.3909000754
1118.48956	0.4051752090
1116.56113	0.4205023646
1114.63270	0.4369011223
1112.70427	0.4540223479
1110.77584	0.4710721672
1108.84741	0.4868921041
1106.91898	0.5001375079
1104.99055	0.5095129609
1103.06212	0.5139638186
1101.13369	0.5128786564
1099.20526	0.5064871907
1097.27683	0.4964333773
1095.34840	0.4861538112
1093.41997	0.4804762602
1091.49154	0.4842513800
1089.56311	0.5006328821
1087.63468	0.5299060941
1085.70625	0.5694121718
1083.77782	0.6144667864
1081.84939	0.6595585942
1079.92096	0.6993287206
1077.99253	0.7293637395
1076.06410	0.7468575835
1074.13567	0.7511226535
1072.20724	0.7437737584
1070.27881	0.7283735275
1068.35038	0.7095853090
1066.42195	0.6920971274
1064.49351	0.6796016097
1062.56508	0.6741015315
1060.63665	0.6756873131
1058.70822	0.6828250885
1056.77979	0.6931053996
1054.85136	0.7042112947
1052.92293	0.7148352265
1050.99450	0.7251932025
1049.06607	0.7367886901
1047.13764	0.7515625954
1045.20921	0.7710170746
1043.28078	0.7957853675
1041.35235	0.8256371021
1039.42392	0.8596714735
1037.49549	0.8965267539
1035.56706	0.9345270991
1033.63863	0.9717184901
1031.71020	1.0058270693
1029.78177	1.0343496799
1027.85334	1.0550261736
1025.92491	1.0666311979
1023.99648	1.0696946383
1022.06805	1.0665080547
1020.13962	1.0600302219
1018.21119	1.0524506569
1016.28276	1.0443636179
1014.35433	1.0346393585
1012.42590	1.0208084583
1010.49747	0.9997484684
1008.56904	0.9687448740
1006.64061	0.9270489812
1004.71218	0.8772454858
1002.78375	0.8254153132
1000.85532	0.7795873880
998.92689	0.7468742728
996.99845	0.7307250500
995.07002	0.7295756340
993.14159	0.7371627092
991.21316	0.7442996502
989.28473	0.7415941358
987.35630	0.7224069834
985.42787	0.6851930618
983.49944	0.6338025331
981.57101	0.5752995610
979.64258	0.5168821812
977.71415	0.4637068510
975.78572	0.4182685316
973.85729	0.3809786737
971.92886	0.3510380387
970.00043	0.3271249831
968.07200	0.3079206645
966.14357	0.2923291028
964.21514	0.2794946730
962.28671	0.2688130438
960.35828	0.2598441541
958.42985	0.2522591650
956.50142	0.2458403707
954.57299	0.2404064536
952.64456	0.2358137816
950.71613	0.2319743186
948.78770	0.2288100868
946.85927	0.2262888849
944.93084	0.2244250625
943.00241	0.2232418209
941.07398	0.2228329480
939.14555	0.2233652771
937.21712	0.2250466496
935.28869	0.2281424254
933.36026	0.2328819782
931.43183	0.2393491566
929.50340	0.2474313080
927.57496	0.2567466795
925.64653	0.2666870058
923.71810	0.2765402198
921.78967	0.2855801880
919.86124	0.2932372093
917.93281	0.2992264926
916.00438	0.3035529256
914.07595	0.3065717518
912.14752	0.3089588583
910.21909	0.3115385175
908.29066	0.3151019514
906.36223	0.3200930357
904.43380	0.3263594508
902.50537	0.3331963420
900.57694	0.3394985199
898.64851	0.3441606164
