3997.63597	-0.0017253368
3995.70754	-0.0017054832
3993.77911	-0.0016885167
3991.85068	-0.0016725294
3989.92225	-0.0016550974
3987.99382	-0.0016374583
3986.06539	-0.0016212628
3984.13696	-0.0016118754
3982.20853	-0.0016050151
3980.28010	-0.0015966074
3978.35167	-0.0015819062
3976.42324	-0.0015646253
3974.49481	-0.0015520382
3972.56638	-0.0015440421
3970.63795	-0.0015356848
3968.70952	-0.0015286686
3966.78109	-0.0015250057
3964.85266	-0.0015220650
3962.92423	-0.0015164416
3960.99580	-0.0015127786
3959.06737	-0.0015084965
3957.13894	-0.0015017377
3955.21051	-0.0014961656
3953.28207	-0.0014960109
3951.35364	-0.0014973523
3949.42521	-0.0014955981
3947.49678	-0.0014941019
3945.56835	-0.0014958045
3943.63992	-0.0014949790
3941.71149	-0.0014993645
3939.78306	-0.0015052460
3937.85463	-0.0015083416
3935.92620	-0.0015113855
3933.99777	-0.0015089607
3932.06934	-0.0015098378
3930.14091	-0.0015186600
3928.21248	-0.0015228904
3926.28405	-0.0015217039
3924.35562	-0.0015256248
3922.42719	-0.0015391929
3920.49876	-0.0015475501
3918.57033	-0.0015513160
3916.64190	-0.0015583319
3914.71347	-0.0015716410
3912.78504	-0.0015756129
3910.85661	-0.0015789144
3908.92818	-0.0015823189
3906.99975	-0.0015888184
3905.07132	-0.0015901079
3903.14289	-0.0015945956
3901.21446	-0.0015961947
3899.28603	-0.0015875804
3897.35760	-0.0015853108
3895.42917	-0.0015857234
3893.50074	-0.0015803071
3891.57231	-0.0015681331
3889.64388	-0.0015801524
3887.71545	-0.0015767994
3885.78701	-0.0015552366
3883.85858	-0.0015666372
3881.93015	-0.0015508517
3880.00172	-0.0015272241
3878.07329	-0.0015295456
3876.14486	-0.0015162867
3874.21643	-0.0015093735
3872.28800	-0.0015148423
3870.35957	-0.0014909547
3868.43114	-0.0014982810
3866.50271	-0.0014871883
3864.57428	-0.0014561269
3862.64585	-0.0014447751
3860.71742	-0.0014253214
3858.78899	-0.0014207804
3856.86056	-0.0014274888
3854.93213	-0.0013957007
3853.00370	-0.0013827991
3851.07527	-0.0013799607
3849.14684	-0.0013186981
3847.21841	-0.0012600078
3845.28998	-0.0012291884
3843.36155	-0.0012140103
3841.43312	-0.0012088475
3839.50469	-0.0011781793
3837.57626	-0.0011363557
3835.64783	-0.0011202447
3833.71940	-0.0010791385
3831.79097	-0.0010301261
3829.86254	-0.0009957263
3827.93411	-0.0009518703
3826.00568	-0.0009145196
3824.07725	-0.0008881190
3822.14882	-0.0008341245
3820.22039	-0.0008083391
3818.29196	-0.0007755755
3816.36352	-0.0006830592
3814.43509	-0.0006358632
3812.50666	-0.0005807515
3810.57823	-0.0005184452
3808.64980	-0.0004616120
3806.72137	-0.0004074093
3804.79294	-0.0003851159
3802.86451	-0.0003005356
3800.93608	-0.0002149039
3799.00765	-0.0001658456
3797.07922	-0.0000699900
3795.15079	0.0000135127
3793.22236	0.0000896524
3791.29393	0.0001741439
3789.36550	0.0002513478
3787.43707	0.0003312855
3785.50864	0.0004266549
3783.58021	0.0005138556
3781.65178	0.0005945415
3779.72335	0.0006847315
3777.79492	0.0007768593
3775.86649	0.0008806268
3773.93806	0.0009833814
3772.00963	0.0010898454
3770.08120	0.0012115986
3768.15277	0.0013303481
3766.22434	0.0014698305
3764.29591	0.0016057984
3762.36748	0.0017404571
3760.43905	0.0018903669
3758.51062	0.0020359331
3756.58219	0.0021766049
3754.65376	0.0023247655
3752.72533	0.0025033331
3750.79690	0.0026733528
3748.86847	0.0028306460
3746.94003	0.0030037654
3745.01160	0.0032641869
3743.08317	0.0034673030
3741.15474	0.0036919476
3739.22631	0.0039645638
3737.29788	0.0042432328
3735.36945	0.0045233881
3733.44102	0.0048153461
3731.51259	0.0051769940
3729.58416	0.0055212723
3727.65573	0.0059363572
3725.72730	0.0063466905
3723.79887	0.0068135229
3721.87044	0.0072995475
3719.94201	0.0078321071
3718.01358	0.0084158601
3716.08515	0.0090289414
3714.15672	0.0097001679
3712.22829	0.0104350587
3710.29986	0.0112041309
3708.37143	0.0120648108
3706.44300	0.0130214281
3704.51457	0.0140571808
3702.58614	0.0151713993
3700.65771	0.0163638219
3698.72928	0.0176525004
3696.80085	0.0190488081
3694.87242	0.0205422379
3692.94399	0.0221429039
3691.01556	0.0238677841
3689.08713	0.0257449839
3687.15870	0.0277376827
3685.23027	0.0298696253
3683.30184	0.0321773924
3681.37341	0.0346188284
3679.44497	0.0371774063
3677.51654	0.0398844630
3675.58811	0.0427535810
3673.65968	0.0457129814
3671.73125	0.0488506481
3669.80282	0.0521077998
3667.87439	0.0554160029
3665.94596	0.0588312857
3664.01753	0.0623348579
3662.08910	0.0658975989
3660.16067	0.0694952980
3658.23224	0.0731217116
3656.30381	0.0767704993
3654.37538	0.0803907961
3652.44695	0.0840127915
3650.51852	0.0876458213
3648.59009	0.0912502259
3646.66166	0.0948225707
3644.73323	0.0983717889
3642.80480	0.1018814370
3640.87637	0.1053279340
3638.94794	0.1087183654
3637.01951	0.1120533422
3635.09108	0.1153574735
3633.16265	0.1186129376
3631.23422	0.1218140721
3629.30579	0.1250387728
3627.37736	0.1281655282
3625.44893	0.1312609464
3623.52050	0.1343601495
3621.59207	0.1374193728
3619.66364	0.1404687315
3617.73521	0.1434771121
3615.80678	0.1464878172
3613.87835	0.1495034844
3611.94992	0.1525090188
3610.02148	0.1555114537
3608.09305	0.1585031301
3606.16462	0.1614901125
3604.23619	0.1644907445
3602.30776	0.1674992740
3600.37933	0.1705096960
3598.45090	0.1735286564
3596.52247	0.1765691787
3594.59404	0.1796338409
3592.66561	0.1827491224
3590.73718	0.1858725995
3588.80875	0.1890148968
3586.88032	0.1921975166
3584.95189	0.1954097897
3583.02346	0.1986671090
3581.09503	0.2019574940
3579.16660	0.2052595913
3577.23817	0.2085843831
3575.30974	0.2119401097
3573.38131	0.2153137922
3571.45288	0.2187062204
3569.52445	0.2221329659
3567.59602	0.2255919278
3565.66759	0.2290720642
3563.73916	0.2325786948
3561.81073	0.2361093014
3559.88230	0.2396656722
3557.95387	0.2432406098
3556.02544	0.2468305081
3554.09701	0.2504364252
3552.16858	0.2540677190
3550.24015	0.2577248812
3548.31172	0.2614069879
3546.38329	0.2651007473
3544.45486	0.2688086927
3542.52643	0.2725466192
3540.59799	0.2763053775
3538.66956	0.2800718248
3536.74113	0.2838448286
3534.81270	0.2876317501
3532.88427	0.2914488018
3530.95584	0.2952909172
3529.02741	0.2991343141
3527.09898	0.3029661775
3525.17055	0.3068006635
3523.24212	0.3106530607
3521.31369	0.3145219386
3519.38526	0.3184021115
3517.45683	0.3222928643
3515.52840	0.3261924684
3513.59997	0.3300993741
3511.67154	0.3340160251
3509.74311	0.3379409909
3507.81468	0.3418703377
3505.88625	0.3458122313
3503.95782	0.3497669697
3502.02939	0.3537225127
3500.10096	0.3576824069
3498.17253	0.3616582751
3496.24410	0.3656517267
3494.31567	0.3696570694
3492.38724	0.3736684620
3490.45881	0.3776836991
3488.53038	0.3817051947
3486.60195	0.3857389092
3484.67352	0.3897896111
3482.74509	0.3938568532
3480.81666	0.3979334235
3478.88823	0.4020185769
3476.95980	0.4061184525
3475.03137	0.4102315009
3473.10293	0.4143461883
3471.17450	0.4184608757
3469.24607	0.4225850105
3467.31764	0.4267323613
3465.38921	0.4309029579
3463.46078	0.4350930452
3461.53235	0.4392887950
3459.60392	0.4434842169
3457.67549	0.4476854205
3455.74706	0.4518914521
3453.81863	0.4561013579
3451.89020	0.4603186846
3449.96177	0.4645397663
3448.03334	0.4687684774
3446.10491	0.4729934335
3444.17648	0.4772010744
3442.24805	0.4813977778
3440.31962	0.4855854213
3438.39119	0.4897624552
3436.46276	0.4939273596
3434.53433	0.4980701804
3432.60590	0.5021805763
3430.67747	0.5062609911
3428.74904	0.5103132129
3426.82061	0.5143295527
3424.89218	0.5183038116
3422.96375	0.5222310424
3421.03532	0.5261024833
3419.10689	0.5299140215
3417.17846	0.5336717367
3415.25003	0.5373713374
3413.32160	0.5410094857
3411.39317	0.5445755720
3409.46474	0.5480617285
3407.53631	0.5514575243
3405.60788	0.5547618866
3403.67944	0.5579761863
3401.75101	0.5610921979
3399.82258	0.5641269088
3397.89415	0.5671095848
3395.96572	0.5700001121
3394.03729	0.5727617741
3392.10886	0.5754075646
3390.18043	0.5779616833
3388.25200	0.5804100633
3386.32357	0.5827387571
3384.39514	0.5849529505
3382.46671	0.5870681405
3380.53828	0.5890828371
3378.60985	0.5909782052
3376.68142	0.5927557945
3374.75299	0.5944218040
3372.82456	0.5959533453
3370.89613	0.5973516107
3368.96770	0.5986695290
3367.03927	0.5999363065
3365.11084	0.6011276245
3363.18241	0.6022042632
3361.25398	0.6031562686
3359.32555	0.6040107608
3357.39712	0.6047924161
3355.46869	0.6054929495
3353.54026	0.6060965061
3351.61183	0.6066155434
3349.68340	0.6070750952
3347.75497	0.6074739695
3345.82654	0.6078069210
3343.89811	0.6080736518
3341.96968	0.6082679033
3340.04125	0.6083995104
3338.11282	0.6084864140
3336.18439	0.6085338593
3334.25595	0.6085394025
3332.32752	0.6084944606
3330.39909	0.6084000468
3328.47066	0.6082708240
3326.54223	0.6081209779
3324.61380	0.6079639792
3322.68537	0.6077956557
3320.75694	0.6075938940
3318.82851	0.6073616147
3316.90008	0.6071217060
3314.97165	0.6068740487
3313.04322	0.6066154838
3311.11479	0.6063556671
3309.18636	0.6060823798
3307.25793	0.6057876945
3305.32950	0.6054916978
3303.40107	0.6052104235
3301.47264	0.6049468517
3299.54421	0.6046905518
3297.61578	0.6044209003
3295.68735	0.6041342616
3293.75892	0.6038408875
3291.83049	0.6035385728
3289.90206	0.6032405496
3287.97363	0.6029658914
3286.04520	0.6026849747
3284.11677	0.6023677588
3282.18834	0.6020297408
3280.25991	0.6016690731
3278.33148	0.6012736559
3276.40305	0.6008583903
3274.47462	0.6004201770
3272.54619	0.5999563336
3270.61776	0.5994759798
3268.68933	0.5989581943
3266.76089	0.5983842611
3264.83246	0.5977531672
3262.90403	0.5970728993
3260.97560	0.5963519812
3259.04717	0.5955781937
3257.11874	0.5947309136
3255.19031	0.5938033462
3253.26188	0.5927948356
3251.33345	0.5917024612
3249.40502	0.5905355215
3247.47659	0.5893087387
3245.54816	0.5880162120
3243.61973	0.5866262317
3241.69130	0.5851146579
3239.76287	0.5834933519
3237.83444	0.5817732215
3235.90601	0.5799346566
3233.97758	0.5779740810
3232.04915	0.5759192109
3230.12072	0.5737636685
3228.19229	0.5714690685
3226.26386	0.5690447092
3224.33543	0.5665366650
3222.40700	0.5639469028
3220.47857	0.5612357259
3218.55014	0.5583880544
3216.62171	0.5554217696
3214.69328	0.5523440242
3212.76485	0.5491425991
3210.83642	0.5458236337
3208.90799	0.5424022675
3206.97956	0.5388672352
3205.05113	0.5351963043
3203.12270	0.5313952565
3201.19427	0.5274868608
3199.26584	0.5234750509
3197.33740	0.5193607211
3195.40897	0.5151511431
3193.48054	0.5108355880
3191.55211	0.5064128637
3189.62368	0.5018962026
3187.69525	0.4973062575
3185.76682	0.4926565289
3183.83839	0.4879365265
3181.90996	0.4831386209
3179.98153	0.4782738686
3178.05310	0.4733519852
3176.12467	0.4683758616
3174.19624	0.4633480906
3172.26781	0.4582693875
3170.33938	0.4531413317
3168.41095	0.4479729831
3166.48252	0.4427819848
3164.55409	0.4375739992
3162.62566	0.4323331118
3160.69723	0.4270561337
3158.76880	0.4217554629
3156.84037	0.4164337516
3154.91194	0.4110939801
3152.98351	0.4057553709
3151.05508	0.4004259706
3149.12665	0.3950859308
3147.19822	0.3897238076
3145.26979	0.3843606412
3143.34136	0.3790102303
3141.41293	0.3736708760
3139.48450	0.3683446050
3137.55607	0.3630367517
3135.62764	0.3577460945
3133.69921	0.3524672687
3131.77078	0.3472061157
3129.84235	0.3419705033
3127.91391	0.3367641866
3125.98548	0.3315823376
3124.05705	0.3264255524
3122.12862	0.3213082552
3120.20019	0.3162395656
3118.27176	0.3112075329
3116.34333	0.3062005341
3114.41490	0.3012279868
3112.48647	0.2963098586
3110.55804	0.2914486825
3108.62961	0.2866297662
3106.70118	0.2818496823
3104.77275	0.2771134079
3102.84432	0.2724346817
3100.91589	0.2678155601
3098.98746	0.2632431686
3097.05903	0.2587098479
3095.13060	0.2542316318
3093.20217	0.2498278171
3091.27374	0.2454842031
3089.34531	0.2411859334
3087.41688	0.2369350642
3085.48845	0.2327526063
3083.56002	0.2286432981
3081.63159	0.2245838046
3079.70316	0.2205635458
3077.77473	0.2166023105
3075.84630	0.2127068788
3073.91787	0.2088833451
3071.98944	0.2051196247
3070.06101	0.2013930529
3068.13258	0.1977095008
3066.20415	0.1940963715
3064.27572	0.1905615628
3062.34729	0.1870830357
3060.41885	0.1836482733
3058.49042	0.1802562177
3056.56199	0.1769250035
3054.63356	0.1736623943
3052.70513	0.1704490930
3050.77670	0.1672704220
3048.84827	0.1641352922
3046.91984	0.1610550731
3044.99141	0.1580343395
3043.06298	0.1550690681
3041.13455	0.1521486789
3039.20612	0.1492755413
3037.27769	0.1464558691
3035.34926	0.1436815709
3033.42083	0.1409468651
3031.49240	0.1382601559
3029.56397	0.1356193572
3027.63554	0.1330219656
3025.70711	0.1304721534
3023.77868	0.1279635876
3021.85025	0.1254800856
3019.92182	0.1230019629
3017.99339	0.1205468401
3016.06496	0.1181809530
3014.13653	0.1159236133
3012.20810	0.1137190089
3010.27967	0.1115242764
3008.35124	0.1093440652
3006.42281	0.1071941331
3004.49438	0.1050789207
3002.56595	0.1029987037
3000.63752	0.1009592041
2998.70909	0.0989743918
2996.78066	0.0970127508
2994.85223	0.0950841680
2992.92380	0.0931878090
2990.99536	0.0913226977
2989.06693	0.0894901231
2987.13850	0.0876909941
2985.21007	0.0859197676
2983.28164	0.0841750577
2981.35321	0.0824620500
2979.42478	0.0807775408
2977.49635	0.0791130140
2975.56792	0.0774677470
2973.63949	0.0758430585
2971.71106	0.0742341876
2969.78263	0.0726334825
2967.85420	0.0710502192
2965.92577	0.0695093051
2963.99734	0.0680207387
2962.06891	0.0665776804
2960.14048	0.0651773065
2958.21205	0.0638264939
2956.28362	0.0625290126
2954.35519	0.0612737574
2952.42676	0.0600427799
2950.49833	0.0588221550
2948.56990	0.0576051623
2946.64147	0.0563919805
2944.71304	0.0551818237
2942.78461	0.0539705195
2940.85618	0.0527581982
2938.92775	0.0515516102
2936.99932	0.0503621176
2935.07089	0.0491934717
2933.14246	0.0480395257
2931.21403	0.0469000563
2929.28560	0.0457789004
2927.35717	0.0446767285
2925.42874	0.0436026454
2923.50031	0.0425691530
2921.57187	0.0415714718
2919.64344	0.0405975655
2917.71501	0.0396683216
2915.78658	0.0388424769
2913.85815	0.0381476767
2911.92972	0.0375333987
2910.00129	0.0369218774
2908.07286	0.0362716503
2906.14443	0.0355823003
2904.21600	0.0348706432
2902.28757	0.0341523960
2900.35914	0.0334378816
2898.43071	0.0327358134
2896.50228	0.0320490934
2894.57385	0.0313735865
2892.64542	0.0307071283
2890.71699	0.0300499853
2888.78856	0.0293994583
2886.86013	0.0287558790
2884.93170	0.0281223655
2883.00327	0.0274979919
2881.07484	0.0268811807
2879.14641	0.0262722000
2877.21798	0.0256704986
2875.28955	0.0250771455
2873.36112	0.0244969260
2871.43269	0.0239319485
2869.50426	0.0233756006
2867.57583	0.0228209458
2865.64740	0.0222663451
2863.71897	0.0217092950
2861.79054	0.0211459752
2859.86211	0.0205742642
2857.93368	0.0200002957
2856.00525	0.0194380488
2854.07681	0.0188895874
2852.14838	0.0183505919
2850.21995	0.0178586580
2848.29152	0.0174835492
2846.36309	0.0172287636
2844.43466	0.0170089081
2842.50623	0.0167494770
2840.57780	0.0164421555
2838.64937	0.0161064677
2836.72094	0.0157561954
2834.79251	0.0154008940
2832.86408	0.0150472773
2830.93565	0.0146960095
2829.00722	0.0143460156
2827.07879	0.0139990840
2825.15036	0.0136586539
2823.22193	0.0133236945
2821.29350	0.0129979290
2819.36507	0.0126887187
2817.43664	0.0123887584
2815.50821	0.0120843733
2813.57978	0.0117782066
2811.65135	0.0114813987
2809.72292	0.0111951800
2807.79449	0.0109143779
2805.86606	0.0106406817
2803.93763	0.0103740776
2802.00920	0.0101090930
2800.08077	0.0098459926
2798.15234	0.0095896143
2796.22391	0.0093401307
2794.29548	0.0090959985
2792.36705	0.0088574719
2790.43862	0.0086239092
2788.51019	0.0083939545
2786.58176	0.0081680259
2784.65332	0.0079476191
2782.72489	0.0077323047
2780.79646	0.0075221802
2778.86803	0.0073186071
2776.93960	0.0071184975
2775.01117	0.0069207945
2773.08274	0.0067296228
2771.15431	0.0065455250
2769.22588	0.0063637123
2767.29745	0.0061799795
2765.36902	0.0059977155
2763.44059	0.0058230581
2761.51216	0.0056560491
2759.58373	0.0054942169
2757.65530	0.0053364541
2755.72687	0.0051807659
2753.79844	0.0050263908
2751.87001	0.0048764418
2749.94158	0.0047320928
2748.01315	0.0045888904
2746.08472	0.0044430415
2744.15629	0.0043001436
2742.22786	0.0041670408
2740.29943	0.0040398580
2738.37100	0.0039128950
2736.44257	0.0037898337
2734.51414	0.0036728899
2732.58571	0.0035580918
2730.65728	0.0034442372
2728.72885	0.0033331253
2726.80042	0.0032236585
2724.87199	0.0031157318
2722.94356	0.0030134618
2721.01513	0.0029163500
2719.08670	0.0028195726
2717.15827	0.0027214100
2715.22983	0.0026255355
2713.30140	0.0025340822
2711.37297	0.0024449651
2709.44454	0.0023582089
2707.51611	0.0022753470
2705.58768	0.0021966638
2703.65925	0.0021214804
2701.73082	0.0020497693
2699.80239	0.0019800463
2697.87396	0.0019080205
2695.94553	0.0018355387
2694.01710	0.0017680854
2692.08867	0.0017038130
2690.16024	0.0016398099
2688.23181	0.0015782064
2686.30338	0.0015210537
2684.37495	0.0014685838
2682.44652	0.0014186393
2680.51809	0.0013676360
2678.58966	0.0013167164
2676.66123	0.0012689962
2674.73280	0.0012239290
2672.80437	0.0011777764
2670.87594	0.0011271646
2668.94751	0.0010723547
2667.01908	0.0010057723
2665.09065	0.0009043613
2663.16222	0.0007549211
2661.23379	0.0005774078
2659.30536	0.0004045012
2657.37693	0.0002510888
2655.44850	0.0001127480
2653.52007	-0.0000145994
2651.59164	-0.0001282202
2649.66321	-0.0002297548
2647.73477	-0.0003261960
2645.80634	-0.0004183745
2643.87791	-0.0005018460
2641.94948	-0.0005767187
2640.02105	-0.0006480116
2638.09262	-0.0007184658
2636.16419	-0.0007841542
2634.23576	-0.0008408935
2632.30733	-0.0008915290
2630.37890	-0.0009412286
2628.45047	-0.0009921622
2626.52204	-0.0010424184
2624.59361	-0.0010820305
2622.66518	-0.0011071283
2620.73675	-0.0011287651
2618.80832	-0.0011541699
2616.87989	-0.0011806577
2614.95146	-0.0012034265
2613.02303	-0.0012172111
2611.09460	-0.0012261425
2609.16617	-0.0012334733
2607.23774	-0.0012342994
2605.30931	-0.0012326989
2603.38088	-0.0012358997
2601.45245	-0.0012356415
2599.52402	-0.0012276913
2597.59559	-0.0012199474
2595.66716	-0.0012111191
2593.73873	-0.0012000706
2591.81030	-0.0011907773
2589.88187	-0.0011756493
2587.95344	-0.0011499359
2586.02501	-0.0011243242
2584.09658	-0.0011043397
2582.16815	-0.0010799648
2580.23972	-0.0010451041
2578.31128	-0.0010079680
2576.38285	-0.0009738764
2574.45442	-0.0009346677
2572.52599	-0.0008858973
2570.59756	-0.0008346929
2568.66913	-0.0007887019
2566.74070	-0.0007452902
2564.81227	-0.0006941725
2562.88384	-0.0006376208
2560.95541	-0.0005852496
2559.02698	-0.0005304418
2557.09855	-0.0004638359
2555.17012	-0.0003963404
2553.24169	-0.0003343180
2551.31326	-0.0002715624
2549.38483	-0.0002114369
2547.45640	-0.0001582897
2545.52797	-0.0000978379
2543.59954	-0.0000240215
2541.67111	0.0000550371
2539.74268	0.0001383308
2537.81425	0.0002241786
2535.88582	0.0003056655
2533.95739	0.0003857168
2532.02896	0.0004715358
2530.10053	0.0005631518
2528.17210	0.0006541390
2526.24367	0.0007364068
2524.31524	0.0008088869
2522.38681	0.0008814050
2520.45838	0.0009615107
2518.52995	0.0010386470
2516.60152	0.0011043263
2514.67309	0.0011778541
2512.74466	0.0012663741
2510.81623	0.0013440581
2508.88779	0.0014105106
2506.95936	0.0014912594
2505.03093	0.0015844937
2503.10250	0.0016701862
2501.17407	0.0017456292
2499.24564	0.0018226971
2497.31721	0.0019041986
2495.38878	0.0019829329
2493.46035	0.0020586383
2491.53192	0.0021369583
2489.60349	0.0022202621
2487.67506	0.0023033735
2485.74663	0.0023850694
2483.81820	0.0024795372
2481.88977	0.0025928007
2479.96134	0.0027060155
2478.03291	0.0028086037
2476.10448	0.0029067078
2474.17605	0.0030013153
2472.24762	0.0030893211
2470.31919	0.0031746069
2468.39076	0.0032670558
2466.46233	0.0033653940
2464.53390	0.0034602319
2462.60547	0.0035501576
2460.67704	0.0036255626
2458.74861	0.0036762836
2456.82018	0.0037218151
2454.89175	0.0037870395
2452.96332	0.0038723059
2451.03489	0.0039730798
2449.10646	0.0040919078
2447.17803	0.0042253272
2445.24960	0.0043619513
2443.32117	0.0044918964
2441.39273	0.0046130111
2439.46430	0.0047362535
2437.53587	0.0048680124
2435.60744	0.0050013303
2433.67901	0.0051278258
2431.75058	0.0052466034
2429.82215	0.0053685578
2427.89372	0.0055045458
2425.96529	0.0056499653
2424.03686	0.0057936753
2422.10843	0.0059304526
2420.18000	0.0060580331
2418.25157	0.0061772750
2416.32314	0.0062977578
2414.39471	0.0064291772
2412.46628	0.0065605831
2410.53785	0.0066776238
2408.60942	0.0068122083
2406.68099	0.0070020747
2404.75256	0.0072131059
2402.82413	0.0073894034
2400.89570	0.0075320574
2398.96727	0.0076644565
2397.03884	0.0078097838
2395.11041	0.0079610124
2393.18198	0.0081067290
2391.25355	0.0082485899
2389.32512	0.0084024789
2387.39669	0.0085666925
2385.46826	0.0087177893
2383.53983	0.0088665867
2381.61140	0.0090215672
2379.68297	0.0091254208
2377.75454	0.0093744891
2375.82611	0.0100927725
2373.89768	0.0096189370
2371.96924	0.0099065294
2370.04081	0.0099388929
2368.11238	0.0096487384
2366.18395	0.0103789819
2364.25552	0.0100539858
2362.32709	0.0105466237
2360.39866	0.0098524801
2358.47023	0.0105883451
2356.54180	0.0109898783
2354.61337	0.0107950754
2352.68494	0.0111986855
2350.75651	0.0114431530
2348.82808	0.0115591772
2346.89965	0.0117221689
2344.97122	0.0117685786
2343.04279	0.0121502802
2341.11436	0.0140663525
2339.18593	0.0124432035
2337.25750	0.0124393143
2335.32907	0.0126934899
2333.40064	0.0128328046
2331.47221	0.0129809920
2329.54378	0.0130652022
2327.61535	0.0129356002
2325.68692	0.0125179039
2323.75849	0.0120802214
2321.83006	0.0120111844
2319.90163	0.0123142395
2317.97320	0.0126370415
2316.04477	0.0128672002
2314.11634	0.0130437547
2312.18791	0.0132356184
2310.25948	0.0134109613
2308.33105	0.0135657284
2306.40262	0.0137119489
2304.47419	0.0138496673
2302.54575	0.0139624598
2300.61732	0.0141223185
2298.68889	0.0142340325
2296.76046	0.0143559156
2294.83203	0.0144441659
2292.90360	0.0144881904
2290.97517	0.0145131350
2289.04674	0.0145308543
2287.11831	0.0146062626
2285.18988	0.0147557259
2283.26145	0.0149879223
2281.33302	0.0152947791
2279.40459	0.0156106809
2277.47616	0.0159017853
2275.54773	0.0161713772
2273.61930	0.0164397638
2271.69087	0.0167155266
2269.76244	0.0169910342
2267.83401	0.0172781628
2265.90558	0.0175831653
2263.97715	0.0178770795
2262.04872	0.0181318950
2260.12029	0.0183495395
2258.19186	0.0185602698
2256.26343	0.0188199729
2254.33500	0.0191511381
2252.40657	0.0194913261
2250.47814	0.0197794922
2248.54971	0.0200478956
2246.62128	0.0203165747
2244.69285	0.0206076484
2242.76442	0.0208782759
2240.83599	0.0211452413
2238.90756	0.0214112811
2236.97913	0.0216774307
2235.05069	0.0219914764
2233.12226	0.0223211162
2231.19383	0.0226030946
2229.26540	0.0228830725
2227.33697	0.0232211202
2225.40854	0.0235702526
2223.48011	0.0238997284
2221.55168	0.0242417436
2219.62325	0.0245753452
2217.69482	0.0248733461
2215.76639	0.0251957737
2213.83796	0.0255411714
2211.90953	0.0258199200
2209.98110	0.0260340031
2208.05267	0.0262507778
2206.12424	0.0265138578
2204.19581	0.0268223621
2202.26738	0.0271146614
2200.33895	0.0273559894
2198.41052	0.0275606532
2196.48209	0.0278088804
2194.55366	0.0281761400
2192.62523	0.0286152046
2190.69680	0.0289950762
2188.76837	0.0292600989
2186.83994	0.0294806510
2184.91151	0.0298020560
2182.98308	0.0303159039
2181.05465	0.0308121312
2179.12622	0.0310594700
2177.19779	0.0312819108
2175.26936	0.0316441022
2173.34093	0.0318005495
2171.41250	0.0316602513
2169.48407	0.0316937752
2167.55564	0.0320356339
2165.62720	0.0324197635
2163.69877	0.0329817086
2161.77034	0.0341855846
2159.84191	0.0361133590
2157.91348	0.0376629904
2155.98505	0.0374833941
2154.05662	0.0361946076
2152.12819	0.0349236354
2150.19976	0.0340354964
2148.27133	0.0335650779
2146.34290	0.0332279131
2144.41447	0.0327490456
2142.48604	0.0323467217
2140.55761	0.0321699195
2138.62918	0.0320687406
2136.70075	0.0320536084
2134.77232	0.0321910791
2132.84389	0.0322790407
2130.91546	0.0321205258
2128.98703	0.0318113863
2127.05860	0.0315334722
2125.13017	0.0312891155
2123.20174	0.0310184583
2121.27331	0.0307909828
2119.34488	0.0306576770
2117.41645	0.0305256620
2115.48802	0.0303196516
2113.55959	0.0301109347
2111.63116	0.0299922619
2109.70273	0.0299383160
2107.77430	0.0298943333
2105.84587	0.0298713185
2103.91744	0.0298641361
2101.98901	0.0298109278
2100.06058	0.0296857115
2098.13215	0.0290465783
2096.20371	0.0285988655
2094.27528	0.0290096868
2092.34685	0.0297811236
2090.41842	0.0301081333
2088.48999	0.0297687594
2086.56156	0.0290691908
2084.63313	0.0285982024
2082.70470	0.0279852934
2080.77627	0.0271676239
2078.84784	0.0262433533
2076.91941	0.0253554024
2074.99098	0.0246174764
2073.06255	0.0240720157
2071.13412	0.0237423014
2069.20569	0.0236291811
2067.27726	0.0236839876
2065.34883	0.0238866545
2063.42040	0.0242566895
2061.49197	0.0247446932
2059.56354	0.0252722874
2057.63511	0.0257440768
2055.70668	0.0260893628
2053.77825	0.0260134730
2051.84982	0.0246110931
2049.92139	0.0217724890
2047.99296	0.0192856118
2046.06453	0.0184660461
2044.13610	0.0188020505
2042.20767	0.0194488764
2040.27924	0.0197294280
2038.35081	0.0192006752
2036.42238	0.0181559697
2034.49395	0.0174351241
2032.56552	0.0175445136
2030.63709	0.0183107387
2028.70865	0.0192455631
2026.78022	0.0198840257
2024.85179	0.0200218186
2022.92336	0.0197930932
2020.99493	0.0194193702
2019.06650	0.0189215187
2017.13807	0.0183046628
2015.20964	0.0175678823
2013.28121	0.0164283924
2011.35278	0.0146767041
2009.42435	0.0128230732
2007.49592	0.0121276537
2005.56749	0.0133022340
2003.63906	0.0154326772
2001.71063	0.0172058716
1999.78220	0.0181964040
1997.85377	0.0185408443
1995.92534	0.0184276663
1993.99691	0.0180863123
1992.06848	0.0177162122
1990.14005	0.0172893684
1988.21162	0.0166837573
1986.28319	0.0157684088
1984.35476	0.0144478856
1982.42633	0.0121543538
1980.49790	0.0083570350
1978.56947	0.0043141306
1976.64104	0.0025538711
1974.71261	0.0035025307
1972.78418	0.0054111741
1970.85575	0.0071226815
1968.92732	0.0084397458
1966.99889	0.0092687514
1965.07046	0.0095577789
1963.14203	0.0094913114
1961.21360	0.0095463740
1959.28516	0.0102559039
1957.35673	0.0114363488
1955.42830	0.0122751212
1953.49987	0.0124183511
1951.57144	0.0121407509
1949.64301	0.0117780734
1947.71458	0.0114746215
1945.78615	0.0112148356
1943.85772	0.0109616034
1941.92929	0.0107487971
1940.00086	0.0106185311
1938.07243	0.0105548194
1936.14400	0.0105202608
1934.21557	0.0105348481
1932.28714	0.0106340759
1930.35871	0.0108255688
1928.43028	0.0111032855
1926.50185	0.0114621026
1924.57342	0.0118879890
1922.64499	0.0122320130
1920.71656	0.0122660147
1918.78813	0.0120222820
1916.85970	0.0117328335
1914.93127	0.0115312645
1913.00284	0.0114044845
1911.07441	0.0113306399
1909.14598	0.0113018388
1907.21755	0.0112827895
1905.28912	0.0112670623
1903.36069	0.0112885283
1901.43226	0.0113486815
1899.50383	0.0114084445
1897.57540	0.0114476979
1895.64697	0.0114825955
1893.71854	0.0115388939
1891.79011	0.0116285142
1889.86167	0.0117294295
1887.93324	0.0118107107
1886.00481	0.0118941348
1884.07638	0.0119983582
1882.14795	0.0121084619
1880.21952	0.0122073321
1878.29109	0.0122961048
1876.36266	0.0123898238
1874.43423	0.0124857472
1872.50580	0.0125669828
1870.57737	0.0126374671
1868.64894	0.0127092963
1866.72051	0.0127953188
1864.79208	0.0128967185
1862.86365	0.0129876602
1860.93522	0.0130668292
1859.00679	0.0131569793
1857.07836	0.0132751437
1855.14993	0.0134177953
1853.22150	0.0135706700
1851.29307	0.0137284873
1849.36464	0.0139084654
1847.43621	0.0141130397
1845.50778	0.0143475411
1843.57935	0.0145886745
1841.65092	0.0148144066
1839.72249	0.0150630614
1837.79406	0.0153207351
1835.86563	0.0155678028
1833.93720	0.0157713890
1832.00877	0.0158879571
1830.08034	0.0158915017
1828.15191	0.0157715492
1826.22348	0.0155540928
1824.29505	0.0152047472
1822.36661	0.0147780078
1820.43818	0.0146100102
1818.50975	0.0152017446
1816.58132	0.0166239887
1814.65289	0.0181968641
1812.72446	0.0192735419
1810.79603	0.0198283419
1808.86760	0.0201135855
1806.93917	0.0202978589
1805.01074	0.0204493199
1803.08231	0.0206075683
1801.15388	0.0207887907
1799.22545	0.0209935084
1797.29702	0.0212352350
1795.36859	0.0215181671
1793.44016	0.0218491368
1791.51173	0.0222090743
1789.58330	0.0225888342
1787.65487	0.0230039414
1785.72644	0.0234348830
1783.79801	0.0238605104
1781.86958	0.0243070852
1779.94115	0.0248255692
1778.01272	0.0254802555
1776.08429	0.0262960717
1774.15586	0.0271917358
1772.22743	0.0280481353
1770.29900	0.0288324710
1768.37057	0.0296397582
1766.44214	0.0304470230
1764.51371	0.0312682539
1762.58528	0.0321379192
1760.65685	0.0330306143
1758.72842	0.0339764841
1756.79999	0.0349885561
1754.87156	0.0360209607
1752.94312	0.0371251814
1751.01469	0.0383153334
1749.08626	0.0395556241
1747.15783	0.0408674367
1745.22940	0.0422450416
1743.30097	0.0436987877
1741.37254	0.0452552326
1739.44411	0.0469193198
1737.51568	0.0486705899
1735.58725	0.0505915321
1733.65882	0.0526448302
1731.73039	0.0547701940
1729.80196	0.0570586883
1727.87353	0.0594878010
1725.94510	0.0620501861
1724.01667	0.0647647157
1722.08824	0.0676156655
1720.15981	0.0706250072
1718.23138	0.0738454014
1716.30295	0.0772342384
1714.37452	0.0808206573
1712.44609	0.0846229270
1710.51766	0.0886159241
1708.58923	0.0928011462
1706.66080	0.0972043946
1704.73237	0.1018017530
1702.80394	0.1066025496
1700.87551	0.1116853356
1698.94708	0.1169310063
1697.01865	0.1224334836
1695.09022	0.1281774193
1693.16179	0.1340593845
1691.23336	0.1401662081
1689.30493	0.1464254409
1687.37650	0.1528185308
1685.44807	0.1594442874
1683.51963	0.1662145406
1681.59120	0.1730902940
1679.66277	0.1801126450
1677.73434	0.1872236431
1675.80591	0.1944474578
1673.87748	0.2017221153
1671.94905	0.2090559006
1670.02062	0.2164737284
1668.09219	0.2239047587
1666.16376	0.2313251942
1664.23533	0.2387416810
1662.30690	0.2460971773
1660.37847	0.2533418536
1658.45004	0.2604390085
1656.52161	0.2673128545
1654.59318	0.2740334272
1652.66475	0.2805323005
1650.73632	0.2866137624
1648.80789	0.2923285365
1646.87946	0.2975736260
1644.95103	0.3021627665
1643.02260	0.3060250580
1641.09417	0.3090741038
1639.16574	0.3111711144
1637.23731	0.3122845590
1635.30888	0.3123655915
1633.38045	0.3113329411
1631.45202	0.3092270494
1629.52359	0.3060215712
1627.59516	0.3017262816
1625.66673	0.2964344621
1623.73830	0.2902860343
1621.80987	0.2833872736
1619.88144	0.2759155631
1617.95301	0.2680729628
1616.02457	0.2599352002
1614.09614	0.2516441047
1612.16771	0.2433878928
1610.23928	0.2351819873
1608.31085	0.2270921320
1606.38242	0.2192011774
1604.45399	0.2115620077
1602.52556	0.2042087466
1600.59713	0.1971664429
1598.66870	0.1904525757
1596.74027	0.1840605587
1594.81184	0.1779723763
1592.88341	0.1721681505
1590.95498	0.1666474491
1589.02655	0.1614390910
1587.09812	0.1566215307
1585.16969	0.1522797048
1583.24126	0.1483995169
1581.31283	0.1448343545
1579.38440	0.1414259821
1577.45597	0.1381701231
1575.52754	0.1350456625
1573.59911	0.1320523024
1571.67068	0.1292874366
1569.74225	0.1266868562
1567.81382	0.1242025048
1565.88539	0.1218804568
1563.95696	0.1196824461
1562.02853	0.1175949946
1560.10010	0.1156723797
1558.17167	0.1138276681
1556.24324	0.1120854095
1554.31481	0.1105163470
1552.38638	0.1090164483
1550.45795	0.1076054722
1548.52952	0.1062733531
1546.60108	0.1050077453
1544.67265	0.1037838757
1542.74422	0.1025861949
1540.81579	0.1014723107
1538.88736	0.1004393324
1536.95893	0.0994845107
1535.03050	0.0986713916
1533.10207	0.0978900865
1531.17364	0.0970866531
1529.24521	0.0963224024
1527.31678	0.0955926329
1525.38835	0.0948804393
1523.45992	0.0942067876
1521.53149	0.0935890153
1519.60306	0.0929511115
1517.67463	0.0923524797
1515.74620	0.0917832851
1513.81777	0.0912263989
1511.88934	0.0906972438
1509.96091	0.0901774913
1508.03248	0.0897227079
1506.10405	0.0893024877
1504.17562	0.0888652280
1502.24719	0.0884916261
1500.31876	0.0881386399
1498.39033	0.0877765045
1496.46190	0.0874293521
1494.53347	0.0870770067
1492.60504	0.0867558271
1490.67661	0.0864701718
1488.74818	0.0861770883
1486.81975	0.0859004930
1484.89132	0.0856408402
1482.96289	0.0853947327
1481.03446	0.0851535499
1479.10603	0.0849078819
1477.17759	0.0846398845
1475.24916	0.0843178630
1473.32073	0.0839646086
1471.39230	0.0836056769
1469.46387	0.0833028927
1467.53544	0.0830890387
1465.60701	0.0829258636
1463.67858	0.0827601776
1461.75015	0.0825893283
1459.82172	0.0824396461
1457.89329	0.0823455080
1455.96486	0.0822518095
1454.03643	0.0821544603
1452.10800	0.0820798129
1450.17957	0.0819494352
1448.25114	0.0817693695
1446.32271	0.0815594271
1444.39428	0.0813595802
1442.46585	0.0811952725
1440.53742	0.0810692087
1438.60899	0.0810092539
1436.68056	0.0810034797
1434.75213	0.0809844211
1432.82370	0.0809883177
1430.89527	0.0809955895
1428.96684	0.0809715092
1427.03841	0.0809236318
1425.10998	0.0808616653
1423.18155	0.0807670653
1421.25312	0.0806613863
1419.32469	0.0805618465
1417.39626	0.0804392099
1415.46783	0.0803540125
1413.53940	0.0803105310
1411.61097	0.0802884847
1409.68253	0.0802754685
1407.75410	0.0802661851
1405.82567	0.0802597106
1403.89724	0.0802424252
1401.96881	0.0802255496
1400.04038	0.0802303106
1398.11195	0.0802400634
1396.18352	0.0802691430
1394.25509	0.0803110301
1392.32666	0.0803242698
1390.39823	0.0803128406
1388.46980	0.0802298784
1386.54137	0.0800499693
1384.61294	0.0798973590
1382.68451	0.0799098983
1380.75608	0.0800200254
1378.82765	0.0801001117
1376.89922	0.0801285654
1374.97079	0.0801519454
1373.04236	0.0801668242
1371.11393	0.0801638365
1369.18550	0.0801587328
1367.25707	0.0801478401
1365.32864	0.0801422298
1363.40021	0.0801528171
1361.47178	0.0801612884
1359.54335	0.0801707208
1357.61492	0.0801898688
1355.68649	0.0802087039
1353.75806	0.0802283213
1351.82963	0.0802564397
1349.90120	0.0802931264
1347.97277	0.0803345144
1346.04434	0.0803755075
1344.11591	0.0804160610
1342.18748	0.0804588646
1340.25904	0.0804765299
1338.33061	0.0804294869
1336.40218	0.0803513676
1334.47375	0.0803153589
1332.54532	0.0803645104
1330.61689	0.0804837570
1328.68846	0.0805995241
1326.76003	0.0806637555
1324.83160	0.0806900933
1322.90317	0.0807004794
1320.97474	0.0807157829
1319.04631	0.0807412490
1317.11788	0.0807679072
1315.18945	0.0807980224
1313.26102	0.0808324814
1311.33259	0.0808699280
1309.40416	0.0809029266
1307.47573	0.0809130892
1305.54730	0.0809154287
1303.61887	0.0809439346
1301.69044	0.0809929371
1299.76201	0.0810405090
1297.83358	0.0810797215
1295.90515	0.0811139792
1293.97672	0.0811516792
1292.04829	0.0811916813
1290.11986	0.0812309086
1288.19143	0.0812771991
1286.26300	0.0813281760
1284.33457	0.0813726932
1282.40614	0.0814096257
1280.47771	0.0814436004
1278.54928	0.0814828500
1276.62085	0.0815245137
1274.69242	0.0815590546
1272.76399	0.0815668330
1270.83555	0.0815158263
1268.90712	0.0813814625
1266.97869	0.0811920539
1265.05026	0.0810254067
1263.12183	0.0809579715
1261.19340	0.0810193568
1259.26497	0.0811761096
1257.33654	0.0813647956
1255.40811	0.0815387219
1253.47968	0.0816782862
1251.55125	0.0817832127
1249.62282	0.0818617493
1247.69439	0.0819128230
1245.76596	0.0819390565
1243.83753	0.0819487423
1241.90910	0.0819434002
1239.98067	0.0819274560
1238.05224	0.0819148570
1236.12381	0.0819036961
1234.19538	0.0818936974
1232.26695	0.0818835050
1230.33852	0.0818669721
1228.41009	0.0818316564
1226.48166	0.0817415565
1224.55323	0.0815956593
1222.62480	0.0814984664
1220.69637	0.0815225095
1218.76794	0.0816052482
1216.83951	0.0816737562
1214.91108	0.0817095339
1212.98265	0.0817199349
1211.05422	0.0817231238
1209.12579	0.0817240626
1207.19736	0.0817219019
1205.26893	0.0817229375
1203.34049	0.0817330629
1201.41206	0.0817504674
1199.48363	0.0817481503
1197.55520	0.0817628056
1195.62677	0.0817784667
1193.69834	0.0818014666
1191.76991	0.0818300620
1189.84148	0.0818600655
1187.91305	0.0818863213
1185.98462	0.0819093212
1184.05619	0.0819348320
1182.12776	0.0819672793
1180.19933	0.0820119306
1178.27090	0.0820638016
1176.34247	0.0821121186
1174.41404	0.0821598396
1172.48561	0.0822106749
1170.55718	0.0822622851
1168.62875	0.0823171288
1166.70032	0.0823719501
1164.77189	0.0824223980
1162.84346	0.0824732259
1160.91503	0.0825256258
1158.98660	0.0825800300
1157.05817	0.0826369822
1155.12974	0.0826922506
1153.20131	0.0827482194
1151.27288	0.0828045979
1149.34445	0.0828548074
1147.41602	0.0829019919
1145.48759	0.0829504952
1143.55916	0.0830022246
1141.63073	0.0830604583
1139.70230	0.0831219852
1137.77387	0.0831896663
1135.84544	0.0832699016
1133.91700	0.0833550766
1131.98857	0.0834390447
1130.06014	0.0835208595
1128.13171	0.0835976750
1126.20328	0.0836733133
1124.27485	0.0837483257
1122.34642	0.0838210061
1120.41799	0.0838992223
1118.48956	0.0839831680
1116.56113	0.0840718746
1114.63270	0.0841739848
1112.70427	0.0842907652
1110.77584	0.0844206885
1108.84741	0.0845628902
1106.91898	0.0847118273
1104.99055	0.0848705471
1103.06212	0.0850399733
1101.13369	0.0852139592
1099.20526	0.0853983536
1097.27683	0.0855963528
1095.34840	0.0858015642
1093.41997	0.0860121474
1091.49154	0.0862262771
1089.56311	0.0864468291
1087.63468	0.0866762102
1085.70625	0.0869050846
1083.77782	0.0871318579
1081.84939	0.0873620808
1079.92096	0.0875961632
1077.99253	0.0878389254
1076.06410	0.0880898088
1074.13567	0.0883420184
1072.20724	0.0886006281
1070.27881	0.0888675153
1068.35038	0.0891373083
1066.42195	0.0894123539
1064.49351	0.0896940008
1062.56508	0.0899835750
1060.63665	0.0902828351
1058.70822	0.0905876234
1056.77979	0.0909005776
1054.85136	0.0912277102
1052.92293	0.0915653184
1050.99450	0.0919114053
1049.06607	0.0922632515
1047.13764	0.0926181003
1045.20921	0.0929809958
1043.28078	0.0933522582
1041.35235	0.0937305167
1039.42392	0.0941213220
1037.49549	0.0945208743
1035.56706	0.0949263051
1033.63863	0.0953481719
1031.71020	0.0957897827
1029.78177	0.0962447599
1027.85334	0.0967101157
1025.92491	0.0971838385
1023.99648	0.0976714939
1022.06805	0.0981827751
1020.13962	0.0987181142
1018.21119	0.0992803723
1016.28276	0.0998741761
1014.35433	0.1004968435
1012.42590	0.1011450812
1010.49747	0.1018147096
1008.56904	0.1025054604
1006.64061	0.1032214388
1004.71218	0.1039552167
1002.78375	0.1046981364
1000.85532	0.1054546013
998.92689	0.1062296107
996.99845	0.1070233658
995.07002	0.1078417972
993.14159	0.1086891070
991.21316	0.1095598862
989.28473	0.1104515120
987.35630	0.1113675833
985.42787	0.1123121828
983.49944	0.1132862195
981.57101	0.1142861918
979.64258	0.1153144911
977.71415	0.1163791791
975.78572	0.1174783707
973.85729	0.1186094731
971.92886	0.1197747663
970.00043	0.1209740043
968.07200	0.1222108975
966.14357	0.1234924644
964.21514	0.1248214692
962.28671	0.1262002885
960.35828	0.1276270598
958.42985	0.1291011721
956.50142	0.1306313127
954.57299	0.1322148442
952.64456	0.1338426322
950.71613	0.1355266273
948.78770	0.1372773200
946.85927	0.1390879750
944.93084	0.1409520507
943.00241	0.1428626478
941.07398	0.1448256522
939.14555	0.1468566358
937.21712	0.1489516497
935.28869	0.1511058956
933.36026	0.1533190012
931.43183	0.1555834860
929.50340	0.1579100341
927.57496	0.1603114456
925.64653	0.1627820432
923.71810	0.1653203815
921.78967	0.1679184884
919.86124	0.1705683768
917.93281	0.1732813418
916.00438	0.1760599166
914.07595	0.1789066792
912.14752	0.1818279326
910.21909	0.1848121583
908.29066	0.1878596693
906.36223	0.1909773350
904.43380	0.1941567212
902.50537	0.1974054873
900.57694	0.2007284909
898.64851	0.2041131854
