3997.63597	-0.0017061020
3995.70754	-0.0016815029
3993.77911	-0.0016591202
3991.85068	-0.0016399856
3989.92225	-0.0016248218
3987.99382	-0.0016145059
3986.06539	-0.0016039319
3984.13696	-0.0015933577
3982.20853	-0.0015822158
3980.28010	-0.0015717441
3978.35167	-0.0015590540
3976.42324	-0.0015439906
3974.49481	-0.0015284106
3972.56638	-0.0015159772
3970.63795	-0.0015068970
3968.70952	-0.0015009122
3966.78109	-0.0014977135
3964.85266	-0.0014969396
3962.92423	-0.0014945146
3960.99580	-0.0014906967
3959.06737	-0.0014858467
3957.13894	-0.0014825447
3955.21051	-0.0014792942
3953.28207	-0.0014757856
3951.35364	-0.0014731026
3949.42521	-0.0014724834
3947.49678	-0.0014721738
3945.56835	-0.0014713483
3943.63992	-0.0014707807
3941.71149	-0.0014758888
3939.78306	-0.0014815128
3937.85463	-0.0014842988
3935.92620	-0.0014863111
3933.99777	-0.0014852276
3932.06934	-0.0014849696
3930.14091	-0.0014884780
3928.21248	-0.0014920381
3926.28405	-0.0014981262
3924.35562	-0.0015100442
3922.42719	-0.0015233548
3920.49876	-0.0015285139
3918.57033	-0.0015314028
3916.64190	-0.0015374904
3914.71347	-0.0015462604
3912.78504	-0.0015509549
3910.85661	-0.0015579708
3908.92818	-0.0015617881
3906.99975	-0.0015644190
3905.07132	-0.0015647286
3903.14289	-0.0015677720
3901.21446	-0.0015666888
3899.28603	-0.0015581771
3897.35760	-0.0015551851
3895.42917	-0.0015575581
3893.50074	-0.0015570421
3891.57231	-0.0015507486
3889.64388	-0.0015518835
3887.71545	-0.0015423913
3885.78701	-0.0015266050
3883.85858	-0.0015313512
3881.93015	-0.0015230968
3880.00172	-0.0015109729
3878.07329	-0.0015091671
3876.14486	-0.0014971460
3874.21643	-0.0014896648
3872.28800	-0.0014889424
3870.35957	-0.0014724834
3868.43114	-0.0014723802
3866.50271	-0.0014615963
3864.57428	-0.0014390475
3862.64585	-0.0014264052
3860.71742	-0.0014084987
3858.78899	-0.0013964748
3856.86056	-0.0013934301
3854.93213	-0.0013760384
3853.00370	-0.0013621557
3851.07527	-0.0013409435
3849.14684	-0.0012868504
3847.21841	-0.0012397199
3845.28998	-0.0012128229
3843.36155	-0.0011959919
3841.43312	-0.0011812772
3839.50469	-0.0011529824
3837.57626	-0.0011157005
3835.64783	-0.0010874530
3833.71940	-0.0010482545
3831.79097	-0.0010081746
3829.86254	-0.0009741863
3827.93411	-0.0009334795
3826.00568	-0.0008953005
3824.07725	-0.0008603217
3822.14882	-0.0008095276
3820.22039	-0.0007722680
3818.29196	-0.0007334029
3816.36352	-0.0006659493
3814.43509	-0.0006188031
3812.50666	-0.0005626035
3810.57823	-0.0005013288
3808.64980	-0.0004429418
3806.72137	-0.0003841332
3804.79294	-0.0003378358
3802.86451	-0.0002603865
3800.93608	-0.0001875810
3799.00765	-0.0001333440
3797.07922	-0.0000485076
3795.15079	0.0000362678
3793.22236	0.0001173828
3791.29393	0.0001978397
3789.36550	0.0002729238
3787.43707	0.0003495235
3785.50864	0.0004346617
3783.58021	0.0005167842
3781.65178	0.0005995444
3779.72335	0.0006890873
3777.79492	0.0007827200
3775.86649	0.0008899648
3773.93806	0.0009999345
3772.00963	0.0011095427
3770.08120	0.0012269663
3768.15277	0.0013467845
3766.22434	0.0014812072
3764.29591	0.0016173864
3762.36748	0.0017576888
3760.43905	0.0019078905
3758.51062	0.0020572077
3756.58219	0.0022063162
3754.65376	0.0023595882
3752.72533	0.0025247610
3750.79690	0.0026876782
3748.86847	0.0028588646
3746.94003	0.0030482877
3745.01160	0.0032889126
3743.08317	0.0035083240
3741.15474	0.0037531988
3739.22631	0.0040400145
3737.29788	0.0043098689
3735.36945	0.0045973142
3733.44102	0.0049538580
3731.51259	0.0052693984
3729.58416	0.0056331027
3727.65573	0.0060267448
3725.72730	0.0064927335
3723.79887	0.0068866038
3721.87044	0.0073832949
3719.94201	0.0079162205
3718.01358	0.0084718950
3716.08515	0.0090777865
3714.15672	0.0097351372
3712.22829	0.0104661090
3710.29986	0.0112809567
3708.37143	0.0121811349
3706.44300	0.0130847292
3704.51457	0.0140916742
3702.58614	0.0152054979
3700.65771	0.0164046530
3698.72928	0.0176931042
3696.80085	0.0190828070
3694.87242	0.0205762722
3692.94399	0.0221816953
3691.01556	0.0239093825
3689.08713	0.0257798955
3687.15870	0.0277680643
3685.23027	0.0298954695
3683.30184	0.0321817137
3681.37341	0.0346112847
3679.44497	0.0371742472
3677.51654	0.0398852862
3675.58811	0.0427525789
3673.65968	0.0457292572
3671.73125	0.0488530211
3669.80282	0.0520991012
3667.87439	0.0554302968
3665.94596	0.0588565394
3664.01753	0.0623423010
3662.08910	0.0658788010
3660.16067	0.0694645867
3658.23224	0.0730890855
3656.30381	0.0767374188
3654.37538	0.0803766921
3652.44695	0.0840137973
3650.51852	0.0876457319
3648.59009	0.0912509933
3646.66166	0.0948234424
3644.73323	0.0983582810
3642.80480	0.1018450484
3640.87637	0.1052883118
3638.94794	0.1087042615
3637.01951	0.1120453626
3635.09108	0.1153643578
3633.16265	0.1186636239
3631.23422	0.1218416914
3629.30579	0.1250782013
3627.37736	0.1281736642
3625.44893	0.1313151270
3623.52050	0.1343688220
3621.59207	0.1374265850
3619.66364	0.1405130476
3617.73521	0.1434830874
3615.80678	0.1464782804
3613.87835	0.1494895071
3611.94992	0.1524888277
3610.02148	0.1554907113
3608.09305	0.1585026085
3606.16462	0.1614769697
3604.23619	0.1644637436
3602.30776	0.1674622297
3600.37933	0.1704722345
3598.45090	0.1735005230
3596.52247	0.1765584499
3594.59404	0.1796635985
3592.66561	0.1827834249
3590.73718	0.1858971417
3588.80875	0.1890210211
3586.88032	0.1921798587
3584.95189	0.1953870207
3583.02346	0.1986326724
3581.09503	0.2019063532
3579.16660	0.2052102536
3577.23817	0.2085443437
3575.30974	0.2119029164
3573.38131	0.2152759284
3571.45288	0.2186648548
3569.52445	0.2220904827
3567.59602	0.2255535871
3565.66759	0.2290350050
3563.73916	0.2325318605
3561.81073	0.2360592932
3559.88230	0.2396242321
3557.95387	0.2432075739
3556.02544	0.2468016297
3554.09701	0.2504080832
3552.16858	0.2540326416
3550.24015	0.2576772273
3548.31172	0.2613512576
3546.38329	0.2650524378
3544.45486	0.2687696218
3542.52643	0.2725000978
3540.59799	0.2762467861
3538.66956	0.2800143659
3536.74113	0.2838003337
3534.81270	0.2875981629
3532.88427	0.2914105058
3530.95584	0.2952385247
3529.02741	0.2990739644
3527.09898	0.3029078841
3525.17055	0.3067538738
3523.24212	0.3106251061
3521.31369	0.3145080209
3519.38526	0.3183888793
3517.45683	0.3222744167
3515.52840	0.3261650503
3513.59997	0.3300623298
3511.67154	0.3339839578
3509.74311	0.3379293680
3507.81468	0.3418710232
3505.88625	0.3458022475
3503.95782	0.3497417271
3502.02939	0.3536987901
3500.10096	0.3576721549
3498.17253	0.3616579473
3496.24410	0.3656463325
3494.31567	0.3696389794
3492.38724	0.3736482561
3490.45881	0.3776706159
3488.53038	0.3816918135
3486.60195	0.3857176006
3484.67352	0.3897676766
3482.74509	0.3938449323
3480.81666	0.3979273140
3478.88823	0.4020015001
3476.95980	0.4060832858
3475.03137	0.4101917446
3473.10293	0.4143189788
3471.17450	0.4184494019
3469.24607	0.4225822389
3467.31764	0.4267317057
3465.38921	0.4309039116
3463.46078	0.4350947738
3461.53235	0.4392938018
3459.60392	0.4434981942
3457.67549	0.4477064908
3455.74706	0.4519192278
3453.81863	0.4561393857
3451.89020	0.4603619277
3449.96177	0.4645778239
3448.03334	0.4687909484
3446.10491	0.4729981720
3444.17648	0.4772002995
3442.24805	0.4814025760
3440.31962	0.4855921865
3438.39119	0.4897545874
3436.46276	0.4938929081
3434.53433	0.4980217814
3432.60590	0.5021453500
3430.67747	0.5062441826
3428.74904	0.5103030205
3426.82061	0.5143255591
3424.89218	0.5183066726
3422.96375	0.5222359896
3421.03532	0.5261126161
3419.10689	0.5299283862
3417.17846	0.5336751938
3415.25003	0.5373587608
3413.32160	0.5409914255
3411.39317	0.5445579290
3409.46474	0.5480418205
3407.53631	0.5514439940
3405.60788	0.5547625422
3403.67944	0.5579811931
3401.75101	0.5611050129
3399.82258	0.5641618967
3397.89415	0.5671560764
3395.96572	0.5700467229
3394.03729	0.5728142262
3392.10886	0.5754598379
3390.18043	0.5779947639
3388.25200	0.5804286599
3386.32357	0.5827709436
3384.39514	0.5850028992
3382.46671	0.5871146321
3380.53828	0.5891175866
3378.60985	0.5910071135
3376.68142	0.5927808285
3374.75299	0.5944467783
3372.82456	0.5959905386
3370.89613	0.5974128246
3368.96770	0.5987500548
3367.03927	0.6000137925
3365.11084	0.6011937261
3363.18241	0.6022754908
3361.25398	0.6032396555
3359.32555	0.6040934324
3357.39712	0.6048750877
3355.46869	0.6055848002
3353.54026	0.6061941981
3351.61183	0.6067112684
3349.68340	0.6071653366
3347.75497	0.6075657010
3345.82654	0.6079078913
3343.89811	0.6081815958
3341.96968	0.6083755493
3340.04125	0.6084909439
3338.11282	0.6085563302
3336.18439	0.6085993648
3334.25595	0.6086168885
3332.32752	0.6085889935
3330.39909	0.6085131764
3328.47066	0.6083998084
3326.54223	0.6082537770
3324.61380	0.6080830097
3322.68537	0.6078978181
3320.75694	0.6077036858
3318.82851	0.6074960232
3316.90008	0.6072681546
3314.97165	0.6070228815
3313.04322	0.6067603230
3311.11479	0.6064820886
3309.18636	0.6061882377
3307.25793	0.6058800817
3305.32950	0.6055814028
3303.40107	0.6053234339
3301.47264	0.6050922871
3299.54421	0.6048405766
3297.61578	0.6045601368
3295.68735	0.6042672992
3293.75892	0.6039725542
3291.83049	0.6036902666
3289.90206	0.6034201384
3287.97363	0.6031413078
3286.04520	0.6028363705
3284.11677	0.6025053263
3282.18834	0.6021609306
3280.25991	0.6018047333
3278.33148	0.6014360189
3276.40305	0.6010556817
3274.47462	0.6006321907
3272.54619	0.6001442075
3270.61776	0.5996204019
3268.68933	0.5990800858
3266.76089	0.5985136628
3264.83246	0.5979012251
3262.90403	0.5972344875
3260.97560	0.5965144634
3259.04717	0.5957337618
3257.11874	0.5948783755
3255.19031	0.5939471722
3253.26188	0.5929516554
3251.33345	0.5918891430
3249.40502	0.5907421708
3247.47659	0.5895029902
3245.54816	0.5881807804
3243.61973	0.5867758989
3241.69130	0.5852735043
3239.76287	0.5836710930
3237.83444	0.5819674134
3235.90601	0.5801420808
3233.97758	0.5781782269
3232.04915	0.5760926008
3230.12072	0.5739142299
3228.19229	0.5716475248
3226.26386	0.5692728758
3224.33543	0.5667696595
3222.40700	0.5641436577
3220.47857	0.5614076257
3218.55014	0.5585540533
3216.62171	0.5555781126
3214.69328	0.5524916053
3212.76485	0.5493056178
3210.83642	0.5460179448
3208.90799	0.5426070690
3206.97956	0.5390549302
3205.05113	0.5353703499
3203.12270	0.5315670371
3201.19427	0.5276559591
3199.26584	0.5236417651
3197.33740	0.5195193887
3195.40897	0.5152902603
3193.48054	0.5109593272
3191.55211	0.5065415502
3189.62368	0.5020454526
3187.69525	0.4974746108
3185.76682	0.4928354025
3183.83839	0.4881172180
3181.90996	0.4833129644
3179.98153	0.4784449935
3178.05310	0.4735284150
3176.12467	0.4685543776
3174.19624	0.4635204971
3172.26781	0.4584382772
3170.33938	0.4533162415
3168.41095	0.4481531680
3166.48252	0.4429532588
3164.55409	0.4377263188
3162.62566	0.4324769080
3160.69723	0.4272044301
3158.76880	0.4219064713
3156.84037	0.4165834188
3154.91194	0.4112424552
3152.98351	0.4058980942
3151.05508	0.4005559385
3149.12665	0.3952119350
3147.19822	0.3898582757
3145.26979	0.3844945133
3143.34136	0.3791360855
3141.41293	0.3737977445
3139.48450	0.3684701025
3137.55607	0.3631515205
3135.62764	0.3578607738
3133.69921	0.3525949419
3131.77078	0.3473441005
3129.84235	0.3421158791
3127.91391	0.3369114697
3125.98548	0.3317191899
3124.05705	0.3265470266
3122.12862	0.3214183450
3120.20019	0.3163471520
3118.27176	0.3113247156
3116.34333	0.3063309789
3114.41490	0.3013621271
3112.48647	0.2964385152
3110.55804	0.2915695012
3108.62961	0.2867396772
3106.70118	0.2819452882
3104.77275	0.2772014439
3102.84432	0.2725269198
3100.91589	0.2679181993
3098.98746	0.2633551359
3097.05903	0.2588247359
3095.13060	0.2543378770
3093.20217	0.2499191165
3091.27374	0.2455708981
3089.34531	0.2412764281
3087.41688	0.2370239645
3085.48845	0.2328349501
3083.56002	0.2287205309
3081.63159	0.2246637493
3079.70316	0.2206541896
3077.77473	0.2167024463
3075.84630	0.2128084451
3073.91787	0.2089758664
3071.98944	0.2051988840
3070.06101	0.2014690489
3068.13258	0.1977947205
3066.20415	0.1941877306
3064.27572	0.1906450689
3062.34729	0.1871519834
3060.41885	0.1837060452
3058.49042	0.1803109497
3056.56199	0.1769815683
3054.63356	0.1737184972
3052.70513	0.1705038697
3050.77670	0.1673300415
3048.84827	0.1642026156
3046.91984	0.1611264497
3044.99141	0.1581040770
3043.06298	0.1551316679
3041.13455	0.1522029191
3039.20612	0.1493237168
3037.27769	0.1464990973
3035.34926	0.1437228322
3033.42083	0.1409927309
3031.49240	0.1383094490
3029.56397	0.1356631964
3027.63554	0.1330600828
3025.70711	0.1305119097
3023.77868	0.1280068606
3021.85025	0.1255258769
3019.92182	0.1230535060
3017.99339	0.1206071526
3016.06496	0.1182453185
3014.13653	0.1159807518
3012.20810	0.1137630790
3010.27967	0.1115611866
3008.35124	0.1093800291
3006.42281	0.1072293222
3004.49438	0.1051126868
3002.56595	0.1030312926
3000.63752	0.1009935960
2998.70909	0.0990113914
2996.78066	0.0970473513
2994.85223	0.0951139405
2992.92380	0.0932186395
2990.99536	0.0913596600
2989.06693	0.0895290896
2987.13850	0.0877249837
2985.21007	0.0859539658
2983.28164	0.0842170045
2981.35321	0.0825050920
2979.42478	0.0808139294
2977.49635	0.0791469663
2975.56792	0.0775045082
2973.63949	0.0758806616
2971.71106	0.0742685199
2969.78263	0.0726648793
2967.85420	0.0710812807
2965.92577	0.0695364922
2963.99734	0.0680406541
2962.06891	0.0665960014
2960.14048	0.0652012154
2958.21205	0.0638538972
2956.28362	0.0625515804
2954.35519	0.0612908080
2952.42676	0.0600602850
2950.49833	0.0588416904
2948.56990	0.0576232225
2946.64147	0.0564067475
2944.71304	0.0551966690
2942.78461	0.0539874919
2940.85618	0.0527762622
2938.92775	0.0515730642
2936.99932	0.0503895879
2935.07089	0.0492247231
2933.14246	0.0480707809
2931.21403	0.0469274558
2929.28560	0.0458000451
2927.35717	0.0446927100
2925.42874	0.0436163545
2923.50031	0.0425824299
2921.57187	0.0415880792
2919.64344	0.0406235158
2917.71501	0.0397013351
2915.78658	0.0388710685
2913.85815	0.0381671786
2911.92972	0.0375502780
2910.00129	0.0369408764
2908.07286	0.0362907574
2906.14443	0.0355983414
2904.21600	0.0348825380
2902.28757	0.0341634303
2900.35914	0.0334524177
2898.43071	0.0327525362
2896.50228	0.0320637822
2894.57385	0.0313870236
2892.64542	0.0307214633
2890.71699	0.0300637167
2888.78856	0.0294130314
2886.86013	0.0287712850
2884.93170	0.0281376373
2883.00327	0.0275112856
2881.07484	0.0268932153
2879.14641	0.0262839980
2877.21798	0.0256843958
2875.28955	0.0250952728
2873.36112	0.0245156866
2871.43269	0.0239469111
2869.50426	0.0233877301
2867.57583	0.0228332505
2865.64740	0.0222790986
2863.71897	0.0217188746
2861.79054	0.0211481210
2859.86211	0.0205725804
2857.93368	0.0200013258
2856.00525	0.0194429755
2854.07681	0.0188947506
2852.14838	0.0183528885
2850.21995	0.0178602766
2848.29152	0.0174893979
2846.36309	0.0172376521
2844.43466	0.0170158800
2842.50623	0.0167561229
2840.57780	0.0164510552
2838.64937	0.0161156282
2836.72094	0.0157644898
2834.79251	0.0154083241
2832.86408	0.0150527973
2830.93565	0.0147003205
2829.00722	0.0143527845
2827.07879	0.0140113020
2825.15036	0.0136740943
2823.22193	0.0133369341
2821.29350	0.0130052902
2819.36507	0.0126909576
2817.43664	0.0123907030
2815.50821	0.0120905749
2813.57978	0.0117898304
2811.65135	0.0114951944
2809.72292	0.0112074511
2807.79449	0.0109263761
2805.86606	0.0106524602
2803.93763	0.0103821894
2802.00920	0.0101133594
2800.08077	0.0098494878
2798.15234	0.0095953299
2796.22391	0.0093499431
2794.29548	0.0091089252
2792.36705	0.0088707609
2790.43862	0.0086358180
2788.51019	0.0084036933
2786.58176	0.0081769684
2784.65332	0.0079585603
2782.72489	0.0077464557
2780.79646	0.0075386683
2778.86803	0.0073358770
2776.93960	0.0071370229
2775.01117	0.0069413632
2773.08274	0.0067502083
2771.15431	0.0065631326
2769.22588	0.0063787112
2767.29745	0.0061945263
2765.36902	0.0060110227
2763.44059	0.0058337096
2761.51216	0.0056652543
2759.58373	0.0055050440
2757.65530	0.0053505274
2755.72687	0.0051966677
2753.79844	0.0050408202
2751.87001	0.0048864945
2749.94158	0.0047378764
2748.01315	0.0045948289
2746.08472	0.0044531622
2744.15629	0.0043112808
2742.22786	0.0041746725
2740.29943	0.0040462068
2738.37100	0.0039210967
2736.44257	0.0037977460
2734.51414	0.0036796252
2732.58571	0.0035659997
2730.65728	0.0034530042
2728.72885	0.0033415246
2726.80042	0.0032340381
2724.87199	0.0031294981
2722.94356	0.0030263388
2721.01513	0.0029245070
2719.08670	0.0028252003
2717.15827	0.0027288340
2715.22983	0.0026349369
2713.30140	0.0025415812
2711.37297	0.0024500154
2709.44454	0.0023647156
2707.51611	0.0022850274
2705.58768	0.0022060561
2703.65925	0.0021269433
2701.73082	0.0020514079
2699.80239	0.0019809564
2697.87396	0.0019108545
2695.94553	0.0018398800
2694.01710	0.0017714902
2692.08867	0.0017062818
2690.16024	0.0016438894
2688.23181	0.0015841819
2686.30338	0.0015264050
2684.37495	0.0014735708
2682.44652	0.0014259891
2680.51809	0.0013768806
2678.58966	0.0013244799
2676.66123	0.0012744223
2674.73280	0.0012301073
2672.80437	0.0011877177
2670.87594	0.0011397781
2668.94751	0.0010844736
2667.01908	0.0010186157
2665.09065	0.0009206778
2663.16222	0.0007738511
2661.23379	0.0005965115
2659.30536	0.0004221464
2657.37693	0.0002671477
2655.44850	0.0001298116
2653.52007	0.0000035723
2651.59164	-0.0001119683
2649.66321	-0.0002141277
2647.73477	-0.0003079338
2645.80634	-0.0003985128
2643.87791	-0.0004851943
2641.94948	-0.0005658609
2640.02105	-0.0006377759
2638.09262	-0.0007031147
2636.16419	-0.0007651361
2634.23576	-0.0008216712
2632.30733	-0.0008730839
2630.37890	-0.0009224757
2628.45047	-0.0009742380
2626.52204	-0.0010251678
2624.59361	-0.0010623541
2622.66518	-0.0010838896
2620.73675	-0.0011035135
2618.80832	-0.0011268544
2616.87989	-0.0011495744
2614.95146	-0.0011686274
2613.02303	-0.0011861821
2611.09460	-0.0012064725
2609.16617	-0.0012207733
2607.23774	-0.0012183469
2605.30931	-0.0012122033
2603.38088	-0.0012144232
2601.45245	-0.0012155591
2599.52402	-0.0012068340
2597.59559	-0.0011927908
2595.66716	-0.0011796250
2593.73873	-0.0011648581
2591.81030	-0.0011440495
2589.88187	-0.0011222586
2587.95344	-0.0011045464
2586.02501	-0.0010892089
2584.09658	-0.0010705140
2582.16815	-0.0010407141
2580.23972	-0.0010015115
2578.31128	-0.0009645782
2576.38285	-0.0009361142
2574.45442	-0.0009090433
2572.52599	-0.0008686404
2570.59756	-0.0008109229
2568.66913	-0.0007515955
2566.74070	-0.0007043035
2564.81227	-0.0006590224
2562.88384	-0.0006067572
2560.95541	-0.0005513317
2559.02698	-0.0004942442
2557.09855	-0.0004317703
2555.17012	-0.0003651492
2553.24169	-0.0002987249
2551.31326	-0.0002368438
2549.38483	-0.0001815780
2547.45640	-0.0001272885
2545.52797	-0.0000572560
2543.59954	0.0000270517
2541.67111	0.0001034785
2539.74268	0.0001738850
2537.81425	0.0002559064
2535.88582	0.0003492126
2533.95739	0.0004443010
2532.02896	0.0005298983
2530.10053	0.0006059730
2528.17210	0.0006881020
2526.24367	0.0007774816
2524.31524	0.0008604731
2522.38681	0.0009377991
2520.45838	0.0010126999
2518.52995	0.0010816968
2516.60152	0.0011450207
2514.67309	0.0012082760
2512.74466	0.0012808609
2510.81623	0.0013571711
2508.88779	0.0014287680
2506.95936	0.0015048966
2505.03093	0.0015881570
2503.10250	0.0016702381
2501.17407	0.0017524387
2499.24564	0.0018396981
2497.31721	0.0019265069
2495.38878	0.0020053491
2493.46035	0.0020794459
2491.53192	0.0021568332
2489.60349	0.0022430029
2487.67506	0.0023336401
2485.74663	0.0024240098
2483.81820	0.0025259587
2481.88977	0.0026378799
2479.96134	0.0027367270
2478.03291	0.0028229076
2476.10448	0.0029186695
2474.17605	0.0030270165
2472.24762	0.0031303063
2470.31919	0.0032186254
2468.39076	0.0033006240
2466.46233	0.0033834728
2464.53390	0.0034679815
2462.60547	0.0035602842
2460.67704	0.0036507007
2458.74861	0.0037131731
2456.82018	0.0037548700
2454.89175	0.0038110118
2452.96332	0.0038966744
2451.03489	0.0040036198
2449.10646	0.0041256440
2447.17803	0.0042619230
2445.24960	0.0044009383
2443.32117	0.0045265532
2441.39273	0.0046406398
2439.46430	0.0047571114
2437.53587	0.0048810230
2435.60744	0.0050147637
2433.67901	0.0051512695
2431.75058	0.0052769445
2429.82215	0.0054021054
2427.89372	0.0055423775
2425.96529	0.0056897239
2424.03686	0.0058292495
2422.10843	0.0059537822
2420.18000	0.0060717096
2418.25157	0.0061993049
2416.32314	0.0063281204
2414.39471	0.0064433906
2412.46628	0.0065526995
2410.53785	0.0066685551
2408.60942	0.0068170200
2406.68099	0.0070206216
2404.75256	0.0072398474
2402.82413	0.0074200002
2400.89570	0.0075658513
2398.96727	0.0076971804
2397.03884	0.0078386972
2395.11041	0.0079892762
2393.18198	0.0081398822
2391.25355	0.0082830992
2389.32512	0.0084311413
2387.39669	0.0086037358
2385.46826	0.0088061690
2383.53983	0.0089940019
2381.61140	0.0092115561
2379.68297	0.0095547363
2377.75454	0.0097848289
2375.82611	0.0095224800
2373.89768	0.0100714983
2371.96924	0.0111440243
2370.04081	0.0115631120
2368.11238	0.0118056564
2366.18395	0.0122603700
2364.25552	0.0110284025
2362.32709	0.0126314713
2360.39866	0.0124114519
2358.47023	0.0126492735
2356.54180	0.0126481541
2354.61337	0.0114470329
2352.68494	0.0123400185
2350.75651	0.0125862751
2348.82808	0.0125858486
2346.89965	0.0127059640
2344.97122	0.0130639747
2343.04279	0.0128422696
2341.11436	0.0109010525
2339.18593	0.0134421717
2337.25750	0.0143191004
2335.32907	0.0143985394
2333.40064	0.0145047838
2331.47221	0.0145906284
2329.54378	0.0145283118
2327.61535	0.0142637780
2325.68692	0.0137547776
2323.75849	0.0131839821
2321.83006	0.0129867531
2319.90163	0.0130966548
2317.97320	0.0132855792
2316.04477	0.0134569639
2314.11634	0.0135690141
2312.18791	0.0136702200
2310.25948	0.0137653053
2308.33105	0.0138606774
2306.40262	0.0139540667
2304.47419	0.0140336528
2302.54575	0.0140470210
2300.61732	0.0141671132
2298.68889	0.0143365180
2296.76046	0.0144844167
2294.83203	0.0145745128
2292.90360	0.0146162482
2290.97517	0.0146440389
2289.04674	0.0146745620
2287.11831	0.0147429248
2285.18988	0.0148697197
2283.26145	0.0150884958
2281.33302	0.0153911589
2279.40459	0.0157162286
2277.47616	0.0160169937
2275.54773	0.0162761472
2273.61930	0.0165263675
2271.69087	0.0167909376
2269.76244	0.0170569886
2267.83401	0.0173479877
2265.90558	0.0176573526
2263.97715	0.0179567132
2262.04872	0.0182216167
2260.12029	0.0184361469
2258.19186	0.0186274089
2256.26343	0.0188893694
2254.33500	0.0192628540
2252.40657	0.0196326505
2250.47814	0.0199079271
2248.54971	0.0201687906
2246.62128	0.0204508677
2244.69285	0.0207523238
2242.76442	0.0210260302
2240.83599	0.0212783758
2238.90756	0.0215579364
2236.97913	0.0218979754
2235.05069	0.0222722311
2233.12226	0.0226161834
2231.19383	0.0229010005
2229.26540	0.0231805164
2227.33697	0.0235298350
2225.40854	0.0239233878
2223.48011	0.0242935065
2221.55168	0.0246235039
2219.62325	0.0249006208
2217.69482	0.0251386911
2215.76639	0.0254311785
2213.83796	0.0257983003
2211.90953	0.0261385422
2209.98110	0.0264013615
2208.05267	0.0266241543
2206.12424	0.0268410295
2204.19581	0.0270863920
2202.26738	0.0274144672
2200.33895	0.0277818628
2198.41052	0.0280695911
2196.48209	0.0283230264
2194.55366	0.0286087357
2192.62523	0.0288779512
2190.69680	0.0291688982
2188.76837	0.0295693409
2186.83994	0.0300451852
2184.91151	0.0305376872
2182.98308	0.0310462620
2181.05465	0.0314079523
2179.12622	0.0314773321
2177.19779	0.0315395668
2175.26936	0.0318934210
2173.34093	0.0322800167
2171.41250	0.0324152745
2169.48407	0.0324526504
2167.55564	0.0326315165
2165.62720	0.0331718624
2163.69877	0.0340624303
2161.77034	0.0351355746
2159.84191	0.0366144851
2157.91348	0.0379518047
2155.98505	0.0378315896
2154.05662	0.0365699902
2152.12819	0.0351946875
2150.19976	0.0342274830
2148.27133	0.0337509252
2146.34290	0.0334754288
2144.41447	0.0331547596
2142.48604	0.0328457765
2140.55761	0.0326226726
2138.62918	0.0324427746
2136.70075	0.0323397778
2134.77232	0.0323843993
2132.84389	0.0324054286
2130.91546	0.0322072767
2128.98703	0.0318750069
2127.05860	0.0315711610
2125.13017	0.0313383043
2123.20174	0.0311489552
2121.27331	0.0310034733
2119.34488	0.0308629591
2117.41645	0.0306483991
2115.48802	0.0303934645
2113.55959	0.0302157104
2111.63116	0.0301430654
2109.70273	0.0301073566
2107.77430	0.0300778374
2105.84587	0.0300662145
2103.91744	0.0300380569
2101.98901	0.0299437251
2100.06058	0.0298099574
2098.13215	0.0292509068
2096.20371	0.0288973171
2094.27528	0.0293192212
2092.34685	0.0300238822
2090.41842	0.0302725490
2088.48999	0.0298767239
2086.56156	0.0291373935
2084.63313	0.0286411140
2082.70470	0.0280449316
2080.77627	0.0272770394
2078.84784	0.0264287870
2076.91941	0.0256189294
2074.99098	0.0249469522
2073.06255	0.0244729072
2071.13412	0.0241901781
2069.20569	0.0240596477
2067.27726	0.0240676384
2065.34883	0.0242241975
2063.42040	0.0245521981
2061.49197	0.0250362027
2059.56354	0.0255896300
2057.63511	0.0260523371
2055.70668	0.0263266265
2053.77825	0.0261764545
2051.84982	0.0247878842
2049.92139	0.0220547915
2047.99296	0.0198043101
2046.06453	0.0194053482
2044.13610	0.0200204905
2042.20767	0.0205110554
2040.27924	0.0205358602
2038.35081	0.0200590100
2036.42238	0.0192165021
2034.49395	0.0185144525
2032.56552	0.0185125619
2030.63709	0.0191965085
2028.70865	0.0199429970
2026.78022	0.0201892927
2024.85179	0.0200454555
2022.92336	0.0199096892
2020.99493	0.0198095385
2019.06650	0.0195246562
2017.13807	0.0189518575
2015.20964	0.0180982407
2013.28121	0.0168952662
2011.35278	0.0152111817
2009.42435	0.0134337349
2007.49592	0.0128137683
2005.56749	0.0140529564
2003.63906	0.0161506087
2001.71063	0.0178310107
1999.78220	0.0186977498
1997.85377	0.0188455731
1995.92534	0.0185496509
1993.99691	0.0181629602
1992.06848	0.0178419352
1990.14005	0.0174179859
1988.21162	0.0167373978
1986.28319	0.0158190373
1984.35476	0.0146286711
1982.42633	0.0124943526
1980.49790	0.0088275662
1978.56947	0.0048973849
1976.64104	0.0032383150
1974.71261	0.0042343973
1972.78418	0.0060584270
1970.85575	0.0076433006
1968.92732	0.0089716185
1966.99889	0.0098791458
1965.07046	0.0100743854
1963.14203	0.0098096905
1961.21360	0.0098545188
1959.28516	0.0106824655
1957.35673	0.0118710957
1955.42830	0.0126392264
1953.49987	0.0127233434
1951.57144	0.0124100931
1949.64301	0.0120575977
1947.71458	0.0118004698
1945.78615	0.0115762185
1943.85772	0.0113031939
1941.92929	0.0110253226
1940.00086	0.0108503299
1938.07243	0.0107662566
1936.14400	0.0107148075
1934.21557	0.0107443919
1932.28714	0.0108766593
1930.35871	0.0110564157
1928.43028	0.0112756435
1926.50185	0.0115859751
1924.57342	0.0119986236
1922.64499	0.0123459576
1920.71656	0.0123892110
1918.78813	0.0121471658
1916.85970	0.0118502919
1914.93127	0.0116456375
1913.00284	0.0115236621
1911.07441	0.0114589399
1909.14598	0.0114451200
1907.21755	0.0114518702
1905.28912	0.0114615178
1903.36069	0.0114765083
1901.43226	0.0115008028
1899.50383	0.0115452744
1897.57540	0.0116058085
1895.64697	0.0116586937
1893.71854	0.0117032873
1891.79011	0.0117648812
1889.86167	0.0118437484
1887.93324	0.0119216181
1886.00481	0.0120087890
1884.07638	0.0121084349
1882.14795	0.0122027788
1880.21952	0.0122818584
1878.29109	0.0123547204
1876.36266	0.0124367308
1874.43423	0.0125292279
1872.50580	0.0126271807
1870.57737	0.0127284341
1868.64894	0.0128256325
1866.72051	0.0129141053
1864.79208	0.0129941944
1862.86365	0.0130682960
1860.93522	0.0131522566
1859.00679	0.0132533126
1857.07836	0.0133656301
1855.14993	0.0134876706
1853.22150	0.0136287892
1851.29307	0.0137942703
1849.36464	0.0139870541
1847.43621	0.0141979773
1845.50778	0.0144216595
1843.57935	0.0146455914
1841.65092	0.0148655409
1839.72249	0.0151099367
1837.79406	0.0153704807
1835.86563	0.0156198572
1833.93720	0.0158186089
1832.00877	0.0159310009
1830.08034	0.0159402117
1828.15191	0.0158433337
1826.22348	0.0156507455
1824.29505	0.0153308716
1822.36661	0.0149344699
1820.43818	0.0147767765
1818.50975	0.0153541220
1816.58132	0.0167381782
1814.65289	0.0182643794
1812.72446	0.0193087496
1810.79603	0.0198514815
1808.86760	0.0201362800
1806.93917	0.0203240067
1805.01074	0.0204809327
1803.08231	0.0206414443
1801.15388	0.0208236054
1799.22545	0.0210338812
1797.29702	0.0212817211
1795.36859	0.0215672683
1793.44016	0.0218943004
1791.51173	0.0222569183
1789.58330	0.0226480365
1787.65487	0.0230677593
1785.72644	0.0235013328
1783.79801	0.0239349026
1781.86958	0.0243849773
1779.94115	0.0249005109
1778.01272	0.0255549271
1776.08429	0.0263694245
1774.15586	0.0272522047
1772.22743	0.0280969031
1770.29900	0.0288871080
1768.37057	0.0296860989
1766.44214	0.0304885618
1764.51371	0.0313085914
1762.58528	0.0321732648
1760.65685	0.0330759510
1758.72842	0.0340286680
1756.79999	0.0350336172
1754.87156	0.0360717289
1752.94312	0.0371777155
1751.01469	0.0383647606
1749.08626	0.0396098718
1747.15783	0.0409183465
1745.22940	0.0422925726
1743.30097	0.0437483713
1741.37254	0.0453036986
1739.44411	0.0469671376
1737.51568	0.0487323590
1735.58725	0.0506416447
1733.65882	0.0526822060
1731.73039	0.0548262261
1729.80196	0.0571154915
1727.87353	0.0595376752
1725.94510	0.0620959662
1724.01667	0.0648056790
1722.08824	0.0676604882
1720.15981	0.0706732869
1718.23138	0.0738802850
1716.30295	0.0772702023
1714.37452	0.0808612928
1712.44609	0.0846601725
1710.51766	0.0886557698
1708.58923	0.0928490981
1706.66080	0.0972530693
1704.73237	0.1018547639
1702.80394	0.1066602245
1700.87551	0.1117247045
1698.94708	0.1169903725
1697.01865	0.1224930286
1695.09022	0.1282213032
1693.16179	0.1341154575
1691.23336	0.1402102560
1689.30493	0.1464667469
1687.37650	0.1528712660
1685.44807	0.1594824791
1683.51963	0.1662601680
1681.59120	0.1731568575
1679.66277	0.1801709682
1677.73434	0.1872741580
1675.80591	0.1944842339
1673.87748	0.2017618269
1671.94905	0.2090977579
1670.02062	0.2165033966
1668.09219	0.2239372581
1666.16376	0.2313631177
1664.23533	0.2387670577
1662.30690	0.2461138815
1660.37847	0.2533608973
1658.45004	0.2604648471
1656.52161	0.2673596442
1654.59318	0.2740682662
1652.66475	0.2805483639
1650.73632	0.2866566181
1648.80789	0.2923655212
1646.87946	0.2975836396
1644.95103	0.3021696210
1643.02260	0.3060283661
1641.09417	0.3090643883
1639.16574	0.3111644089
1637.23731	0.3122752607
1635.30888	0.3123467565
1633.38045	0.3113245964
1631.45202	0.3092178106
1629.52359	0.3060055971
1627.59516	0.3017117977
1625.66673	0.2964261770
1623.73830	0.2902757823
1621.80987	0.2833853066
1619.88144	0.2759247422
1617.95301	0.2680670023
1616.02457	0.2599250972
1614.09614	0.2516533434
1612.16771	0.2433948219
1610.23928	0.2351808250
1608.31085	0.2270855904
1606.38242	0.2191926390
1604.45399	0.2115523964
1602.52556	0.2041975707
1600.59713	0.1971566528
1598.66870	0.1904484034
1596.74027	0.1840632111
1594.81184	0.1779798269
1592.88341	0.1721790433
1590.95498	0.1666623056
1589.02655	0.1614601910
1587.09812	0.1566497087
1585.16969	0.1523102522
1583.24126	0.1484234929
1581.31283	0.1448524594
1579.38440	0.1414501518
1577.45597	0.1381837428
1575.52754	0.1350536793
1573.59911	0.1320773810
1571.67068	0.1293018609
1569.74225	0.1266883910
1567.81382	0.1242148429
1565.88539	0.1218998209
1563.95696	0.1197131723
1562.02853	0.1176377237
1560.10010	0.1156970784
1558.17167	0.1138572022
1556.24324	0.1121345013
1554.31481	0.1105489358
1552.38638	0.1090392396
1550.45795	0.1076242775
1548.52952	0.1062980816
1546.60108	0.1050404757
1544.67265	0.1038215831
1542.74422	0.1026298702
1540.81579	0.1015072986
1538.88736	0.1004751846
1536.95893	0.0995398760
1535.03050	0.0987127498
1533.10207	0.0979154781
1531.17364	0.0971179232
1529.24521	0.0963524580
1527.31678	0.0956180543
1525.38835	0.0949109793
1523.45992	0.0942399055
1521.53149	0.0936105922
1519.60306	0.0929816067
1517.67463	0.0923811346
1515.74620	0.0918060839
1513.81777	0.0912542790
1511.88934	0.0907329693
1509.96091	0.0902261436
1508.03248	0.0897615030
1506.10405	0.0893300176
1504.17562	0.0889093801
1502.24719	0.0885334909
1500.31876	0.0881691203
1498.39033	0.0878005177
1496.46190	0.0874475539
1494.53347	0.0871053785
1492.60504	0.0867897794
1490.67661	0.0864965767
1488.74818	0.0862039849
1486.81975	0.0859276205
1484.89132	0.0856670365
1482.96289	0.0854186192
1481.03446	0.0851750597
1479.10603	0.0849289373
1477.17759	0.0846614018
1475.24916	0.0843444839
1473.32073	0.0839906782
1471.39230	0.0836403891
1469.46387	0.0833490267
1467.53544	0.0831301957
1465.60701	0.0829543471
1463.67858	0.0827908143
1461.75015	0.0826351047
1459.82172	0.0824934170
1457.89329	0.0823825300
1455.96486	0.0822823122
1454.03643	0.0821888968
1452.10800	0.0821002945
1450.17957	0.0819653422
1448.25114	0.0817864910
1446.32271	0.0815789476
1444.39428	0.0813796222
1442.46585	0.0812189281
1440.53742	0.0811038762
1438.60899	0.0810436010
1436.68056	0.0810270011
1434.75213	0.0810157433
1432.82370	0.0810194835
1430.89527	0.0810187310
1428.96684	0.0809948742
1427.03841	0.0809506103
1425.10998	0.0808880180
1423.18155	0.0807975233
1421.25312	0.0806916207
1419.32469	0.0805855319
1417.39626	0.0804720446
1415.46783	0.0803876221
1413.53940	0.0803391561
1411.61097	0.0803171024
1409.68253	0.0803072006
1407.75410	0.0802995414
1405.82567	0.0802901015
1403.89724	0.0802730098
1401.96881	0.0802585855
1400.04038	0.0802588090
1398.11195	0.0802676156
1396.18352	0.0802960843
1394.25509	0.0803362280
1392.32666	0.0803569108
1390.39823	0.0803474709
1388.46980	0.0802600533
1386.54137	0.0800859183
1384.61294	0.0799449310
1382.68451	0.0799558535
1380.75608	0.0800567493
1378.82765	0.0801293477
1376.89922	0.0801560208
1374.97079	0.0801791549
1373.04236	0.0801962465
1371.11393	0.0801942274
1369.18550	0.0801839232
1367.25707	0.0801707208
1365.32864	0.0801657066
1363.40021	0.0801750124
1361.47178	0.0801844150
1359.54335	0.0801941976
1357.61492	0.0802102610
1355.68649	0.0802281350
1353.75806	0.0802500248
1351.82963	0.0802779570
1349.90120	0.0803105682
1347.97277	0.0803484097
1346.04434	0.0803893059
1344.11591	0.0804331303
1342.18748	0.0804790556
1340.25904	0.0804970041
1338.33061	0.0804532245
1336.40218	0.0803812370
1334.47375	0.0803485289
1332.54532	0.0803957507
1330.61689	0.0805095285
1328.68846	0.0806208700
1326.76003	0.0806832388
1324.83160	0.0807088614
1322.90317	0.0807202682
1320.97474	0.0807375759
1319.04631	0.0807645991
1317.11788	0.0807933137
1315.18945	0.0808241516
1313.26102	0.0808565170
1311.33259	0.0808928832
1309.40416	0.0809276253
1307.47573	0.0809420347
1305.54730	0.0809483677
1303.61887	0.0809774995
1301.69044	0.0810252577
1299.76201	0.0810713917
1297.83358	0.0811089575
1295.90515	0.0811427236
1293.97672	0.0811812282
1292.04829	0.0812214836
1290.11986	0.0812597200
1288.19143	0.0813029483
1286.26300	0.0813495591
1284.33457	0.0813918263
1282.40614	0.0814302340
1280.47771	0.0814655498
1278.54928	0.0815032423
1276.62085	0.0815434381
1274.69242	0.0815782025
1272.76399	0.0815874487
1270.83555	0.0815399364
1268.90712	0.0814096853
1266.97869	0.0812235475
1265.05026	0.0810599476
1263.12183	0.0809940323
1261.19340	0.0810542330
1259.26497	0.0812091604
1257.33654	0.0813968852
1255.40811	0.0815681741
1253.47968	0.0817030668
1251.55125	0.0818056166
1249.62282	0.0818850696
1247.69439	0.0819366798
1245.76596	0.0819600895
1243.83753	0.0819645599
1241.90910	0.0819569007
1239.98067	0.0819426775
1238.05224	0.0819304883
1236.12381	0.0819177926
1234.19538	0.0819077641
1232.26695	0.0818986371
1230.33852	0.0818823501
1228.41009	0.0818468407
1226.48166	0.0817584917
1224.55323	0.0816182792
1222.62480	0.0815273523
1220.69637	0.0815526843
1218.76794	0.0816316158
1216.83951	0.0816950053
1214.91108	0.0817273408
1212.98265	0.0817366242
1211.05422	0.0817381516
1209.12579	0.0817365274
1207.19736	0.0817354694
1205.26893	0.0817409307
1203.34049	0.0817524940
1201.41206	0.0817670897
1199.48363	0.0817636549
1197.55520	0.0817808360
1195.62677	0.0818003416
1193.69834	0.0818236247
1191.76991	0.0818504691
1189.84148	0.0818799436
1187.91305	0.0819048509
1185.98462	0.0819265470
1184.05619	0.0819542482
1182.12776	0.0819901973
1180.19933	0.0820364729
1178.27090	0.0820876956
1176.34247	0.0821341053
1174.41404	0.0821818635
1172.48561	0.0822347254
1170.55718	0.0822885633
1168.62875	0.0823449492
1166.70032	0.0824012756
1164.77189	0.0824542269
1162.84346	0.0825069398
1160.91503	0.0825592130
1158.98660	0.0826123431
1157.05817	0.0826668590
1155.12974	0.0827182159
1153.20131	0.0827707648
1151.27288	0.0828277096
1149.34445	0.0828820318
1147.41602	0.0829324797
1145.48759	0.0829830468
1143.55916	0.0830360129
1141.63073	0.0830942467
1139.70230	0.0831570923
1137.77387	0.0832275748
1135.84544	0.0833083764
1133.91700	0.0833942816
1131.98857	0.0834813938
1130.06014	0.0835638493
1128.13171	0.0836391971
1126.20328	0.0837154314
1124.27485	0.0837917775
1122.34642	0.0838652477
1120.41799	0.0839429349
1118.48956	0.0840241313
1116.56113	0.0841110498
1114.63270	0.0842130482
1112.70427	0.0843283311
1110.77584	0.0844564736
1108.84741	0.0845989287
1106.91898	0.0847479478
1104.99055	0.0849042609
1103.06212	0.0850717723
1101.13369	0.0852488279
1099.20526	0.0854373053
1097.27683	0.0856337398
1095.34840	0.0858337730
1093.41997	0.0860427618
1091.49154	0.0862581357
1089.56311	0.0864768997
1087.63468	0.0867034197
1085.70625	0.0869307891
1083.77782	0.0871556178
1081.84939	0.0873855054
1079.92096	0.0876209289
1077.99253	0.0878648758
1076.06410	0.0881190747
1074.13567	0.0883762836
1072.20724	0.0886358321
1070.27881	0.0888982639
1068.35038	0.0891625732
1066.42195	0.0894353464
1064.49351	0.0897177458
1062.56508	0.0900081545
1060.63665	0.0903087109
1058.70822	0.0906158760
1056.77979	0.0909306034
1054.85136	0.0912565514
1052.92293	0.0915903077
1050.99450	0.0919343084
1049.06607	0.0922878683
1047.13764	0.0926446319
1045.20921	0.0930080339
1043.28078	0.0933791250
1041.35235	0.0937575325
1039.42392	0.0941477790
1037.49549	0.0945464894
1035.56706	0.0949551389
1033.63863	0.0953819603
1031.71020	0.0958217978
1029.78177	0.0962700620
1027.85334	0.0967322364
1025.92491	0.0972071141
1023.99648	0.0976950303
1022.06805	0.0982036069
1020.13962	0.0987380967
1018.21119	0.0993044153
1016.28276	0.0999014080
1014.35433	0.1005231738
1012.42590	0.1011708677
1010.49747	0.1018433124
1008.56904	0.1025368944
1006.64061	0.1032522395
1004.71218	0.1039843485
1002.78375	0.1047265008
1000.85532	0.1054823548
998.92689	0.1062589064
996.99845	0.1070588082
995.07002	0.1078829467
993.14159	0.1087278053
991.21316	0.1095913723
989.28473	0.1104791239
987.35630	0.1113951504
985.42787	0.1123395711
983.49944	0.1133155897
981.57101	0.1143212169
979.64258	0.1153535545
977.71415	0.1164167449
975.78572	0.1175110489
973.85729	0.1186371595
971.92886	0.1198008582
970.00043	0.1210028753
968.07200	0.1222449914
966.14357	0.1235296875
964.21514	0.1248564646
962.28671	0.1262326092
960.35828	0.1276614815
958.42985	0.1291393638
956.50142	0.1306712478
954.57299	0.1322554797
952.64456	0.1338884681
950.71613	0.1355847716
948.78770	0.1373487264
946.85927	0.1391662210
944.93084	0.1410296261
943.00241	0.1429330111
941.07398	0.1448857784
939.14555	0.1469103545
937.21712	0.1490057856
935.28869	0.1511634886
933.36026	0.1533773392
931.43183	0.1556403786
929.50340	0.1579680890
927.57496	0.1603710502
925.64653	0.1628386825
923.71810	0.1653709859
921.78967	0.1679630727
919.86124	0.1706113964
917.93281	0.1733296067
916.00438	0.1761144698
914.07595	0.1789647937
912.14752	0.1818866432
910.21909	0.1848683655
908.29066	0.1879136860
906.36223	0.1910284460
904.43380	0.1942043304
902.50537	0.1974558979
900.57694	0.2007878721
898.64851	0.2041777670
