3997.63597	-0.0017495209
3995.70754	-0.0017282761
3993.77911	-0.0017068755
3991.85068	-0.0016891870
3989.92225	-0.0016753658
3987.99382	-0.0016615442
3986.06539	-0.0016435444
3984.13696	-0.0016285353
3982.20853	-0.0016174460
3980.28010	-0.0016073878
3978.35167	-0.0015918101
3976.42324	-0.0015744781
3974.49481	-0.0015634389
3972.56638	-0.0015565779
3970.63795	-0.0015485819
3968.70952	-0.0015429588
3966.78109	-0.0015419786
3964.85266	-0.0015414627
3962.92423	-0.0015365102
3960.99580	-0.0015330537
3959.06737	-0.0015293908
3957.13894	-0.0015207753
3955.21051	-0.0015110760
3953.28207	-0.0015066906
3951.35364	-0.0015048333
3949.42521	-0.0015020473
3947.49678	-0.0015036467
3945.56835	-0.0015093219
3943.63992	-0.0015065875
3941.71149	-0.0015105085
3939.78306	-0.0015192275
3937.85463	-0.0015222714
3935.92620	-0.0015255216
3933.99777	-0.0015218586
3932.06934	-0.0015217555
3930.14091	-0.0015340855
3928.21248	-0.0015414627
3926.28405	-0.0015398118
3924.35562	-0.0015433199
3922.42719	-0.0015575065
3920.49876	-0.0015643674
3918.57033	-0.0015670499
3916.64190	-0.0015738591
3914.71347	-0.0015891279
3912.78504	-0.0015929965
3910.85661	-0.0015977421
3908.92818	-0.0016034676
3906.99975	-0.0016065110
3905.07132	-0.0015980001
3903.14289	-0.0016003213
3901.21446	-0.0016037772
3899.28603	-0.0015936155
3897.35760	-0.0015949052
3895.42917	-0.0015999601
3893.50074	-0.0015922744
3891.57231	-0.0015758709
3889.64388	-0.0015992380
3887.71545	-0.0015957304
3885.78701	-0.0015635421
3883.85858	-0.0015866003
3881.93015	-0.0015731369
3880.00172	-0.0015470858
3878.07329	-0.0015587962
3876.14486	-0.0015438874
3874.21643	-0.0015324346
3872.28800	-0.0015341886
3870.35957	-0.0014955465
3868.43114	-0.0015118499
3866.50271	-0.0015071550
3864.57428	-0.0014710902
3862.64585	-0.0014635054
3860.71742	-0.0014469423
3858.78899	-0.0014493159
3856.86056	-0.0014534954
3854.93213	-0.0013895080
3853.00370	-0.0013703615
3851.07527	-0.0013994679
3849.14684	-0.0013511627
3847.21841	-0.0012897927
3845.28998	-0.0012538132
3843.36155	-0.0012347123
3841.43312	-0.0012293949
3839.50469	-0.0011881958
3837.57626	-0.0011428102
3835.64783	-0.0011464247
3833.71940	-0.0011091423
3831.79097	-0.0010506304
3829.86254	-0.0010153025
3827.93411	-0.0009718618
3826.00568	-0.0009367341
3824.07725	-0.0009072867
3822.14882	-0.0008343311
3820.22039	-0.0008182607
3818.29196	-0.0008016212
3816.36352	-0.0006966019
3814.43509	-0.0006642434
3812.50666	-0.0006231974
3810.57823	-0.0005530897
3808.64980	-0.0004752134
3806.72137	-0.0004106161
3804.79294	-0.0004066852
3802.86451	-0.0003116070
3800.93608	-0.0002140242
3799.00765	-0.0001756784
3797.07922	-0.0000713359
3795.15079	0.0000122701
3793.22236	0.0000764739
3791.29393	0.0001530907
3789.36550	0.0002249555
3787.43707	0.0003013395
3785.50864	0.0003971947
3783.58021	0.0004868254
3781.65178	0.0005750750
3779.72335	0.0006746721
3777.79492	0.0007623115
3775.86649	0.0008599284
3773.93806	0.0009606286
3772.00963	0.0010682807
3770.08120	0.0011960500
3768.15277	0.0013127179
3766.22434	0.0014494676
3764.29591	0.0015794275
3762.36748	0.0017128048
3760.43905	0.0018705042
3758.51062	0.0020130731
3756.58219	0.0021399239
3754.65376	0.0022807596
3752.72533	0.0024715709
3750.79690	0.0026480372
3748.86847	0.0027949777
3746.94003	0.0029665714
3745.01160	0.0032654649
3743.08317	0.0034588750
3741.15474	0.0036496043
3739.22631	0.0039047715
3737.29788	0.0042177988
3735.36945	0.0045315232
3733.44102	0.0047422205
3731.51259	0.0051781465
3729.58416	0.0054822629
3727.65573	0.0059406348
3725.72730	0.0062404010
3723.79887	0.0068066074
3721.87044	0.0072455327
3719.94201	0.0077748899
3718.01358	0.0084060151
3716.08515	0.0090031726
3714.15672	0.0096745715
3712.22829	0.0104195205
3710.29986	0.0111383675
3708.37143	0.0119495029
3706.44300	0.0129739512
3704.51457	0.0140649080
3702.58614	0.0151975900
3700.65771	0.0163797084
3698.72928	0.0176471621
3696.80085	0.0190332290
3694.87242	0.0205197670
3692.94399	0.0221125055
3691.01556	0.0238344204
3689.08713	0.0257109255
3687.15870	0.0277106147
3685.23027	0.0298277568
3683.30184	0.0321286097
3681.37341	0.0345606320
3679.44497	0.0371118188
3677.51654	0.0398273729
3675.58811	0.0427053086
3673.65968	0.0456365459
3671.73125	0.0487734824
3669.80282	0.0520441793
3667.87439	0.0553438701
3665.94596	0.0587573387
3664.01753	0.0622613281
3662.08910	0.0658066198
3660.16067	0.0693861023
3658.23224	0.0730181560
3656.30381	0.0766859278
3654.37538	0.0803047419
3652.44695	0.0839336067
3650.51852	0.0875879601
3648.59009	0.0911938548
3646.66166	0.0947507694
3644.73323	0.0982855633
3642.80480	0.1017831266
3640.87637	0.1052138954
3638.94794	0.1085789353
3637.01951	0.1119498909
3635.09108	0.1152575836
3633.16265	0.1184327975
3631.23422	0.1216913834
3629.30579	0.1248317510
3627.37736	0.1280374080
3625.44893	0.1310597658
3623.52050	0.1342422813
3621.59207	0.1373276711
3619.66364	0.1402949095
3617.73521	0.1433710009
3615.80678	0.1463846415
3613.87835	0.1493836343
3611.94992	0.1523803174
3610.02148	0.1553583592
3608.09305	0.1583175957
3606.16462	0.1613411605
3604.23619	0.1643752307
3602.30776	0.1673888117
3600.37933	0.1704012603
3598.45090	0.1734206975
3596.52247	0.1764300764
3594.59404	0.1794236451
3592.66561	0.1824883372
3590.73718	0.1856205314
3588.80875	0.1888148487
3586.88032	0.1920328885
3584.95189	0.1952495575
3583.02346	0.1985099614
3581.09503	0.2018113881
3579.16660	0.2051107883
3577.23817	0.2084340602
3575.30974	0.2117888182
3573.38131	0.2151674032
3571.45288	0.2185753137
3569.52445	0.2220171541
3567.59602	0.2254820168
3565.66759	0.2289542556
3563.73916	0.2324566543
3561.81073	0.2359884530
3559.88230	0.2395419925
3557.95387	0.2431112379
3556.02544	0.2466930747
3554.09701	0.2502897680
3552.16858	0.2539160848
3550.24015	0.2575734556
3548.31172	0.2612643242
3546.38329	0.2649731934
3544.45486	0.2686888278
3542.52643	0.2724204063
3540.59799	0.2761704922
3538.66956	0.2799430490
3536.74113	0.2837371826
3534.81270	0.2875378728
3532.88427	0.2913443446
3530.95584	0.2951679528
3529.02741	0.2990078926
3527.09898	0.3028489053
3525.17055	0.3066950738
3523.24212	0.3105556369
3521.31369	0.3144230545
3519.38526	0.3182964921
3517.45683	0.3221808076
3515.52840	0.3260698915
3513.59997	0.3299670815
3511.67154	0.3338925838
3509.74311	0.3378429413
3507.81468	0.3417889476
3505.88625	0.3457295895
3503.95782	0.3496725261
3502.02939	0.3536179662
3500.10096	0.3575811386
3498.17253	0.3615611196
3496.24410	0.3655432761
3494.31567	0.3695354760
3492.38724	0.3735470474
3490.45881	0.3775701225
3488.53038	0.3815982938
3486.60195	0.3856364191
3484.67352	0.3896887600
3482.74509	0.3937546313
3480.81666	0.3978306055
3478.88823	0.4019200206
3476.95980	0.4060246646
3475.03137	0.4101408124
3473.10293	0.4142611325
3471.17450	0.4183788002
3469.24607	0.4225047529
3467.31764	0.4266627133
3465.38921	0.4308453500
3463.46078	0.4350378215
3461.53235	0.4392291903
3459.60392	0.4434168041
3457.67549	0.4476119578
3455.74706	0.4518240094
3453.81863	0.4560475051
3451.89020	0.4602736533
3449.96177	0.4644926488
3448.03334	0.4687023461
3446.10491	0.4729049504
3444.17648	0.4771175981
3442.24805	0.4813399017
3440.31962	0.4855456352
3438.39119	0.4897220731
3436.46276	0.4938651025
3434.53433	0.4979827404
3432.60590	0.5020861626
3430.67747	0.5061719418
3428.74904	0.5102379322
3426.82061	0.5142787099
3424.89218	0.5182683468
3422.96375	0.5221891999
3421.03532	0.5260499716
3419.10689	0.5298618078
3417.17846	0.5336225033
3415.25003	0.5373162031
3413.32160	0.5409441590
3411.39317	0.5445114970
3409.46474	0.5480087996
3407.53631	0.5514171720
3405.60788	0.5547413826
3403.67944	0.5579745770
3401.75101	0.5610945821
3399.82258	0.5641294718
3397.89415	0.5671132207
3395.96572	0.5699955225
3394.03729	0.5727444291
3392.10886	0.5753875971
3390.18043	0.5779411793
3388.25200	0.5803833008
3386.32357	0.5827191472
3384.39514	0.5849512815
3382.46671	0.5870629549
3380.53828	0.5890597701
3378.60985	0.5909572244
3376.68142	0.5927442312
3374.75299	0.5944070220
3372.82456	0.5959502459
3370.89613	0.5973883271
3368.96770	0.5987349153
3367.03927	0.5999880433
3365.11084	0.6011385918
3363.18241	0.6021916270
3361.25398	0.6031648517
3359.32555	0.6040620804
3357.39712	0.6048743129
3355.46869	0.6055904627
3353.54026	0.6062001586
3351.61183	0.6067150235
3349.68340	0.6071671844
3347.75497	0.6075587273
3345.82654	0.6078694463
3343.89811	0.6081119180
3341.96968	0.6083200574
3340.04125	0.6084912419
3338.11282	0.6085994840
3336.18439	0.6086463332
3334.25595	0.6086434722
3332.32752	0.6085891128
3330.39909	0.6084922552
3328.47066	0.6083660126
3326.54223	0.6082201600
3324.61380	0.6080634594
3322.68537	0.6078960299
3320.75694	0.6077150702
3318.82851	0.6075118184
3316.90008	0.6072772741
3314.97165	0.6070258617
3313.04322	0.6067747474
3311.11479	0.6065230966
3309.18636	0.6062598825
3307.25793	0.6059840918
3305.32950	0.6057009697
3303.40107	0.6054130793
3301.47264	0.6051324606
3299.54421	0.6048644781
3297.61578	0.6045967340
3295.68735	0.6043189168
3293.75892	0.6040332913
3291.83049	0.6037442684
3289.90206	0.6034551859
3287.97363	0.6031581163
3286.04520	0.6028416753
3284.11677	0.6025133133
3282.18834	0.6021830440
3280.25991	0.6018326283
3278.33148	0.6014495492
3276.40305	0.6010511518
3274.47462	0.6006321907
3272.54619	0.6001707315
3270.61776	0.5996729136
3268.68933	0.5991410613
3266.76089	0.5985621810
3264.83246	0.5979309678
3262.90403	0.5972527266
3260.97560	0.5965201259
3259.04717	0.5957282186
3257.11874	0.5948880911
3255.19031	0.5939913392
3253.26188	0.5930135846
3251.33345	0.5919464827
3249.40502	0.5907980204
3247.47659	0.5895655155
3245.54816	0.5882335305
3243.61973	0.5868093967
3241.69130	0.5853062868
3239.76287	0.5837044120
3237.83444	0.5819848180
3235.90601	0.5801531672
3233.97758	0.5782144070
3232.04915	0.5761656165
3230.12072	0.5740060210
3228.19229	0.5717371702
3226.26386	0.5693497658
3224.33543	0.5668357015
3222.40700	0.5641984940
3220.47857	0.5614441633
3218.55014	0.5585892797
3216.62171	0.5556406975
3214.69328	0.5525795817
3212.76485	0.5494001508
3210.83642	0.5461049676
3208.90799	0.5426708460
3206.97956	0.5390968323
3205.05113	0.5354136825
3203.12270	0.5316189528
3201.19427	0.5277007818
3199.26584	0.5236777663
3197.33740	0.5195648074
3195.40897	0.5153547525
3193.48054	0.5110365748
3191.55211	0.5066242814
3189.62368	0.5021352172
3187.69525	0.4975654483
3185.76682	0.4929080009
3183.83839	0.4881720543
3181.90996	0.4833701551
3179.98153	0.4785045385
3178.05310	0.4735792279
3176.12467	0.4686029255
3174.19624	0.4635748565
3172.26781	0.4584968984
3170.33938	0.4533850551
3168.41095	0.4482388794
3166.48252	0.4430471957
3164.55409	0.4378170967
3162.62566	0.4325613081
3160.69723	0.4272830784
3158.76880	0.4219806194
3156.84037	0.4166514874
3154.91194	0.4113045633
3152.98351	0.4059563577
3151.05508	0.4006077647
3149.12665	0.3952576816
3147.19822	0.3899157643
3145.26979	0.3845844269
3143.34136	0.3792466223
3141.41293	0.3738937378
3139.48450	0.3685406446
3137.55607	0.3632154465
3135.62764	0.3579273224
3133.69921	0.3526564538
3131.77078	0.3473918438
3129.84235	0.3421424329
3127.91391	0.3369198740
3125.98548	0.3317302465
3124.05705	0.3265774548
3122.12862	0.3214619160
3120.20019	0.3163900673
3118.27176	0.3113606274
3116.34333	0.3063586056
3114.41490	0.3013860285
3112.48647	0.2964651585
3110.55804	0.2915973663
3108.62961	0.2867672741
3106.70118	0.2819818556
3104.77275	0.2772514820
3102.84432	0.2725805342
3100.91589	0.2679628730
3098.98746	0.2633856237
3097.05903	0.2588444650
3095.13060	0.2543545961
3093.20217	0.2499381304
3091.27374	0.2455928624
3089.34531	0.2413022369
3087.41688	0.2370508164
3085.48845	0.2328520715
3083.56002	0.2287267596
3081.63159	0.2246696502
3079.70316	0.2206607759
3077.77473	0.2167036831
3075.84630	0.2128061652
3073.91787	0.2089771181
3071.98944	0.2052083462
3070.06101	0.2014783472
3068.13258	0.1977883130
3066.20415	0.1941695511
3064.27572	0.1906339079
3062.34729	0.1871528178
3060.41885	0.1837124377
3058.49042	0.1803178489
3056.56199	0.1769840568
3054.63356	0.1737130433
3052.70513	0.1704910547
3050.77670	0.1673113257
3048.84827	0.1641814858
3046.91984	0.1611068696
3044.99141	0.1580884010
3043.06298	0.1551217139
3041.13455	0.1521953195
3039.20612	0.1493099928
3037.27769	0.1464789808
3035.34926	0.1437010914
3033.42083	0.1409656256
3031.49240	0.1382751763
3029.56397	0.1356288493
3027.63554	0.1330257952
3025.70711	0.1304713935
3023.77868	0.1279637963
3021.85025	0.1254886240
3019.92182	0.1230199337
3017.99339	0.1205720901
3016.06496	0.1182090268
3014.13653	0.1159436628
3012.20810	0.1137232855
3010.27967	0.1115189493
3008.35124	0.1093408689
3006.42281	0.1071987376
3004.49438	0.1050905585
3002.56595	0.1030132473
3000.63752	0.1009714231
2998.70909	0.0989800170
2996.78066	0.0970108435
2994.85223	0.0950798467
2992.92380	0.0931878090
2990.99536	0.0913283825
2989.06693	0.0894981995
2987.13850	0.0877013505
2985.21007	0.0859393254
2983.28164	0.0842051581
2981.35321	0.0824916959
2979.42478	0.0807989314
2977.49635	0.0791283920
2975.56792	0.0774787962
2973.63949	0.0758493468
2971.71106	0.0742373466
2969.78263	0.0726361498
2967.85420	0.0710545480
2965.92577	0.0695126802
2963.99734	0.0680164695
2962.06891	0.0665641353
2960.14048	0.0651588067
2958.21205	0.0638071522
2956.28362	0.0625092536
2954.35519	0.0612535477
2952.42676	0.0600237250
2950.49833	0.0588061512
2948.56990	0.0575902946
2946.64147	0.0563733205
2944.71304	0.0551578999
2942.78461	0.0539428219
2940.85618	0.0527315103
2938.92775	0.0515331030
2936.99932	0.0503507815
2935.07089	0.0491802804
2933.14246	0.0480210483
2931.21403	0.0468798131
2929.28560	0.0457568392
2927.35717	0.0446484126
2925.42874	0.0435677022
2923.50031	0.0425325781
2921.57187	0.0415393412
2919.64344	0.0405724384
2917.71501	0.0396480709
2915.78658	0.0388206504
2913.85815	0.0381198674
2911.92972	0.0375033729
2910.00129	0.0368943177
2908.07286	0.0362423845
2906.14443	0.0355472080
2904.21600	0.0348332822
2902.28757	0.0341181234
2900.35914	0.0334084705
2898.43071	0.0327094384
2896.50228	0.0320207812
2894.57385	0.0313411132
2892.64542	0.0306721516
2890.71699	0.0300138127
2888.78856	0.0293636452
2886.86013	0.0287214462
2884.93170	0.0280877054
2883.00327	0.0274612047
2881.07484	0.0268445276
2879.14641	0.0262401365
2877.21798	0.0256415550
2875.28955	0.0250479393
2873.36112	0.0244667437
2871.43269	0.0238973498
2869.50426	0.0233354177
2867.57583	0.0227819346
2865.64740	0.0222322047
2863.71897	0.0216753893
2861.79054	0.0211066231
2859.86211	0.0205311924
2857.93368	0.0199597199
2856.00525	0.0193987433
2854.07681	0.0188457090
2852.14838	0.0183044206
2850.21995	0.0178159885
2848.29152	0.0174418874
2846.36309	0.0171835180
2844.43466	0.0169619359
2842.50623	0.0167050343
2840.57780	0.0164015088
2838.64937	0.0160673838
2836.72094	0.0157165248
2834.79251	0.0153603703
2832.86408	0.0150063308
2830.93565	0.0146544268
2829.00722	0.0143041452
2827.07879	0.0139585845
2825.15036	0.0136190401
2823.22193	0.0132825635
2821.29350	0.0129543217
2819.36507	0.0126437573
2817.43664	0.0123448391
2815.50821	0.0120439446
2813.57978	0.0117410785
2811.65135	0.0114433924
2809.72292	0.0111530544
2807.79449	0.0108724656
2805.86606	0.0106027480
2803.93763	0.0103355572
2802.00920	0.0100660929
2800.08077	0.0098019326
2798.15234	0.0095482003
2796.22391	0.0093015172
2794.29548	0.0090594161
2792.36705	0.0088211475
2790.43862	0.0085854121
2788.51019	0.0083522322
2786.58176	0.0081248749
2784.65332	0.0079061240
2782.72489	0.0076936232
2780.79646	0.0074846498
2778.86803	0.0072806734
2776.93960	0.0070815808
2775.01117	0.0068864985
2773.08274	0.0066959728
2771.15431	0.0065087625
2769.22588	0.0063241278
2767.29745	0.0061429851
2765.36902	0.0059652245
2763.44059	0.0057916553
2761.51216	0.0056232428
2759.58373	0.0054590371
2757.65530	0.0052986667
2755.72687	0.0051424946
2753.79844	0.0049896776
2751.87001	0.0048392704
2749.94158	0.0046907989
2748.01315	0.0045453347
2746.08472	0.0044035795
2744.15629	0.0042651650
2742.22786	0.0041300082
2740.29943	0.0039977939
2738.37100	0.0038683882
2736.44257	0.0037441126
2734.51414	0.0036262413
2732.58571	0.0035117948
2730.65728	0.0033993348
2728.72885	0.0032914949
2726.80042	0.0031871237
2724.87199	0.0030810307
2722.94356	0.0029751984
2721.01513	0.0028747858
2719.08670	0.0027793983
2717.15827	0.0026851518
2715.22983	0.0025905091
2713.30140	0.0024979177
2711.37297	0.0024085999
2709.44454	0.0023207576
2707.51611	0.0022345725
2705.58768	0.0021533212
2703.65925	0.0020773392
2701.73082	0.0020057394
2699.80239	0.0019374795
2697.87396	0.0018679565
2695.94553	0.0017971189
2694.01710	0.0017302433
2692.08867	0.0016667821
2690.16024	0.0016029663
2688.23181	0.0015407186
2686.30338	0.0014829475
2684.37495	0.0014294173
2682.44652	0.0013783608
2680.51809	0.0013279073
2678.58966	0.0012785502
2676.66123	0.0012323657
2674.73280	0.0011888598
2672.80437	0.0011454361
2670.87594	0.0010983314
2668.94751	0.0010434216
2667.01908	0.0009746901
2665.09065	0.0008746351
2663.16222	0.0007291464
2661.23379	0.0005545207
2659.30536	0.0003807683
2657.37693	0.0002234275
2655.44850	0.0000841634
2653.52007	-0.0000394484
2651.59164	-0.0001490776
2649.66321	-0.0002486412
2647.73477	-0.0003450264
2645.80634	-0.0004376664
2643.87791	-0.0005232543
2641.94948	-0.0006034484
2640.02105	-0.0006782003
2638.09262	-0.0007465306
2636.16419	-0.0008083391
2634.23576	-0.0008638352
2632.30733	-0.0009155012
2630.37890	-0.0009628218
2628.45047	-0.0010052820
2626.52204	-0.0010500622
2624.59361	-0.0010972134
2622.66518	-0.0011351163
2620.73675	-0.0011579909
2618.80832	-0.0011719319
2616.87989	-0.0011859240
2614.95146	-0.0012016711
2613.02303	-0.0012164883
2611.09460	-0.0012321827
2609.16617	-0.0012451920
2607.23774	-0.0012520580
2605.30931	-0.0012597498
2603.38088	-0.0012690932
2601.45245	-0.0012697127
2599.52402	-0.0012559813
2597.59559	-0.0012359513
2595.66716	-0.0012188632
2593.73873	-0.0012067823
2591.81030	-0.0011921712
2589.88187	-0.0011657359
2587.95344	-0.0011366655
2586.02501	-0.0011179210
2584.09658	-0.0011047012
2582.16815	-0.0010865751
2580.23972	-0.0010582224
2578.31128	-0.0010228434
2576.38285	-0.0009888563
2574.45442	-0.0009532652
2572.52599	-0.0009054785
2570.59756	-0.0008503494
2568.66913	-0.0008046701
2566.74070	-0.0007642058
2564.81227	-0.0007126769
2562.88384	-0.0006565411
2560.95541	-0.0006055681
2559.02698	-0.0005523141
2557.09855	-0.0004912448
2555.17012	-0.0004237536
2553.24169	-0.0003553207
2551.31326	-0.0002965519
2549.38483	-0.0002432082
2547.45640	-0.0001828200
2545.52797	-0.0001134175
2543.59954	-0.0000410532
2541.67111	0.0000370444
2539.74268	0.0001255133
2537.81425	0.0002135600
2535.88582	0.0002928431
2533.95739	0.0003749648
2532.02896	0.0004665863
2530.10053	0.0005573459
2528.17210	0.0006366918
2526.24367	0.0007011694
2524.31524	0.0007642563
2522.38681	0.0008500205
2520.45838	0.0009510037
2518.52995	0.0010362340
2516.60152	0.0010996809
2514.67309	0.0011640197
2512.74466	0.0012444891
2510.81623	0.0013309453
2508.88779	0.0014151334
2506.95936	0.0015012859
2505.03093	0.0015881830
2503.10250	0.0016635079
2501.17407	0.0017281382
2499.24564	0.0017976387
2497.31721	0.0018735200
2495.38878	0.0019498825
2493.46035	0.0020304974
2491.53192	0.0021177346
2489.60349	0.0022070969
2487.67506	0.0022928861
2485.74663	0.0023788225
2483.81820	0.0024782876
2481.88977	0.0025890248
2479.96134	0.0026947891
2478.03291	0.0027960199
2476.10448	0.0028962318
2474.17605	0.0029920100
2472.24762	0.0030856712
2470.31919	0.0031757804
2468.39076	0.0032621266
2466.46233	0.0033506288
2464.53390	0.0034410539
2462.60547	0.0035265654
2460.67704	0.0035964849
2458.74861	0.0036490820
2456.82018	0.0037035393
2454.89175	0.0037760462
2452.96332	0.0038633214
2451.03489	0.0039659222
2449.10646	0.0040908102
2447.17803	0.0042306334
2445.24960	0.0043646968
2443.32117	0.0044801268
2441.39273	0.0045909570
2439.46430	0.0047196099
2437.53587	0.0048593478
2435.60744	0.0049962499
2433.67901	0.0051253112
2431.75058	0.0052495375
2429.82215	0.0053826319
2427.89372	0.0055199615
2425.96529	0.0056411275
2424.03686	0.0057538021
2422.10843	0.0058788643
2420.18000	0.0060215215
2418.25157	0.0061722076
2416.32314	0.0063097873
2414.39471	0.0064226878
2412.46628	0.0065271566
2410.53785	0.0066457386
2408.60942	0.0068039251
2406.68099	0.0070067835
2404.75256	0.0072068945
2402.82413	0.0073708408
2400.89570	0.0075156223
2398.96727	0.0076474892
2397.03884	0.0077802399
2395.11041	0.0079202019
2393.18198	0.0080718119
2391.25355	0.0082289353
2389.32512	0.0083879903
2387.39669	0.0085554989
2385.46826	0.0087361718
2383.53983	0.0088776834
2381.61140	0.0090548163
2379.68297	0.0093519799
2377.75454	0.0095406584
2375.82611	0.0092621408
2373.89768	0.0096352398
2371.96924	0.0114963632
2370.04081	0.0116008101
2368.11238	0.0113404449
2366.18395	0.0131307244
2364.25552	0.0102536771
2362.32709	0.0136406496
2360.39866	0.0116051435
2358.47023	0.0127734588
2356.54180	0.0137087964
2354.61337	0.0107463822
2352.68494	0.0122098606
2350.75651	0.0123746684
2348.82808	0.0121224094
2346.89965	0.0127333393
2344.97122	0.0134474048
2343.04279	0.0127048716
2341.11436	0.0102517689
2339.18593	0.0133035155
2337.25750	0.0152500020
2335.32907	0.0156249832
2333.40064	0.0156802926
2331.47221	0.0156816337
2329.54378	0.0154362181
2327.61535	0.0151077658
2325.68692	0.0144774048
2323.75849	0.0137583315
2321.83006	0.0134023111
2319.90163	0.0134364581
2317.97320	0.0135173108
2316.04477	0.0136390468
2314.11634	0.0136962133
2312.18791	0.0137543501
2310.25948	0.0138059743
2308.33105	0.0138680805
2306.40262	0.0139378943
2304.47419	0.0139733134
2302.54575	0.0138853462
2300.61732	0.0140430368
2298.68889	0.0142497076
2296.76046	0.0144460918
2294.83203	0.0145369573
2292.90360	0.0145730674
2290.97517	0.0146076819
2289.04674	0.0145979635
2287.11831	0.0146709476
2285.18988	0.0148340128
2283.26145	0.0150625529
2281.33302	0.0153658148
2279.40459	0.0156991314
2277.47616	0.0160114076
2275.54773	0.0162581950
2273.61930	0.0165055282
2271.69087	0.0168026704
2269.76244	0.0170887057
2267.83401	0.0173763577
2265.90558	0.0176707525
2263.97715	0.0179596283
2262.04872	0.0182328485
2260.12029	0.0184804164
2258.19186	0.0187054239
2256.26343	0.0189665947
2254.33500	0.0193108059
2252.40657	0.0196622796
2250.47814	0.0199371427
2248.54971	0.0201806966
2246.62128	0.0204312503
2244.69285	0.0207203925
2242.76442	0.0210234206
2240.83599	0.0213128217
2238.90756	0.0215658806
2236.97913	0.0218303557
2235.05069	0.0221765470
2233.12226	0.0225561131
2231.19383	0.0229049027
2229.26540	0.0232213382
2227.33697	0.0235295892
2225.40854	0.0238232091
2223.48011	0.0240786094
2221.55168	0.0243446734
2219.62325	0.0246803816
2217.69482	0.0250524636
2215.76639	0.0254552495
2213.83796	0.0258857459
2211.90953	0.0262367260
2209.98110	0.0264465585
2208.05267	0.0266158972
2206.12424	0.0268710740
2204.19581	0.0271646753
2202.26738	0.0273995232
2200.33895	0.0276459176
2198.41052	0.0279824771
2196.48209	0.0283868853
2194.55366	0.0288214330
2192.62523	0.0292421021
2190.69680	0.0296118502
2188.76837	0.0299742054
2186.83994	0.0302782394
2184.91151	0.0304497164
2182.98308	0.0307383016
2181.05465	0.0312411021
2179.12622	0.0316491984
2177.19779	0.0319369659
2175.26936	0.0322881863
2173.34093	0.0326268300
2171.41250	0.0328386016
2169.48407	0.0329721607
2167.55564	0.0330899172
2165.62720	0.0333596617
2163.69877	0.0340171047
2161.77034	0.0351164602
2159.84191	0.0366321690
2157.91348	0.0378879644
2155.98505	0.0377401523
2154.05662	0.0365260616
2152.12819	0.0353182480
2150.19976	0.0345571563
2148.27133	0.0341072865
2146.34290	0.0337092131
2144.41447	0.0332836099
2142.48604	0.0329217538
2140.55761	0.0326610170
2138.62918	0.0324211009
2136.70075	0.0322496258
2134.77232	0.0322716236
2132.84389	0.0322941840
2130.91546	0.0320961103
2128.98703	0.0318128616
2127.05860	0.0315821841
2125.13017	0.0313719735
2123.20174	0.0311666429
2121.27331	0.0309799537
2119.34488	0.0308003202
2117.41645	0.0306013171
2115.48802	0.0303638168
2113.55959	0.0301575754
2111.63116	0.0300777536
2109.70273	0.0300746188
2107.77430	0.0300435498
2105.84587	0.0300000831
2103.91744	0.0299767572
2101.98901	0.0299166013
2100.06058	0.0297830645
2098.13215	0.0291724969
2096.20371	0.0287563764
2094.27528	0.0291314982
2092.34685	0.0298327766
2090.41842	0.0301321056
2088.48999	0.0298111215
2086.56156	0.0291375611
2084.63313	0.0286713094
2082.70470	0.0280520003
2080.77627	0.0272458103
2078.84784	0.0263925586
2076.91941	0.0256048981
2074.99098	0.0249184947
2073.06255	0.0243733134
2071.13412	0.0240252297
2069.20569	0.0238868464
2067.27726	0.0239379667
2065.34883	0.0241577197
2063.42040	0.0245511290
2061.49197	0.0250917077
2059.56354	0.0256455913
2057.63511	0.0260313656
2055.70668	0.0262420606
2053.77825	0.0260910112
2051.84982	0.0246803537
2049.92139	0.0218751356
2047.99296	0.0195486192
2046.06453	0.0190777481
2044.13610	0.0196452718
2042.20767	0.0201371200
2040.27924	0.0201773327
2038.35081	0.0197318122
2036.42238	0.0190198421
2034.49395	0.0185460858
2032.56552	0.0187156405
2030.63709	0.0193962790
2028.70865	0.0200541578
2026.78022	0.0202775151
2024.85179	0.0201421641
2022.92336	0.0199935194
2020.99493	0.0198789593
2019.06650	0.0195701476
2017.13807	0.0190000720
2015.20964	0.0181530006
2013.28121	0.0168679245
2011.35278	0.0151035041
2009.42435	0.0133641623
2007.49592	0.0128109157
2005.56749	0.0140697481
2003.63906	0.0161843803
2001.71063	0.0178483278
1999.78220	0.0186369214
1997.85377	0.0187108573
1995.92534	0.0183824301
1993.99691	0.0179586839
1992.06848	0.0175472628
1990.14005	0.0170341600
1988.21162	0.0164066162
1986.28319	0.0156946778
1984.35476	0.0147102019
1982.42633	0.0126749659
1980.49790	0.0089856517
1978.56947	0.0049361326
1976.64104	0.0032017007
1974.71261	0.0042312345
1972.78418	0.0060760407
1970.85575	0.0076012285
1968.92732	0.0087796478
1966.99889	0.0094986670
1965.07046	0.0096249981
1963.14203	0.0094652511
1961.21360	0.0096475473
1959.28516	0.0105685312
1957.35673	0.0118318312
1955.42830	0.0126079936
1953.49987	0.0126272338
1951.57144	0.0122621004
1949.64301	0.0118668918
1947.71458	0.0115335509
1945.78615	0.0112683112
1943.85772	0.0110939909
1941.92929	0.0109824175
1940.00086	0.0108393691
1938.07243	0.0106536541
1936.14400	0.0105204731
1934.21557	0.0105352458
1932.28714	0.0106894160
1930.35871	0.0109100509
1928.43028	0.0111624300
1926.50185	0.0114896651
1924.57342	0.0119180791
1922.64499	0.0122668399
1920.71656	0.0122765061
1918.78813	0.0120000606
1916.85970	0.0116900709
1914.93127	0.0115038594
1913.00284	0.0114264628
1911.07441	0.0114004724
1909.14598	0.0113905603
1907.21755	0.0113613028
1905.28912	0.0113292849
1903.36069	0.0113350507
1901.43226	0.0113806743
1899.50383	0.0114374384
1897.57540	0.0114821428
1895.64697	0.0115225194
1893.71854	0.0115827313
1891.79011	0.0116732391
1889.86167	0.0117687909
1887.93324	0.0118310060
1886.00481	0.0118859932
1884.07638	0.0119707100
1882.14795	0.0120782517
1880.21952	0.0121764224
1878.29109	0.0122598372
1876.36266	0.0123521900
1874.43423	0.0124521274
1872.50580	0.0125475852
1870.57737	0.0126456227
1868.64894	0.0127296336
1866.72051	0.0127971051
1864.79208	0.0128802927
1862.86365	0.0129683232
1860.93522	0.0130487159
1859.00679	0.0131347803
1857.07836	0.0132416235
1855.14993	0.0133696347
1853.22150	0.0135174450
1851.29307	0.0136838183
1849.36464	0.0138677331
1847.43621	0.0140629029
1845.50778	0.0143028079
1843.57935	0.0145610748
1841.65092	0.0147903813
1839.72249	0.0150379511
1837.79406	0.0152931968
1835.86563	0.0155396853
1833.93720	0.0157407336
1832.00877	0.0158534031
1830.08034	0.0158605166
1828.15191	0.0157492161
1826.22348	0.0155501487
1824.29505	0.0152174812
1822.36661	0.0148002915
1820.43818	0.0146353906
1818.50975	0.0152163291
1816.58132	0.0166174807
1814.65289	0.0181688461
1812.72446	0.0192341972
1810.79603	0.0197877008
1808.86760	0.0200738944
1806.93917	0.0202571191
1805.01074	0.0204046611
1803.08231	0.0205623750
1801.15388	0.0207488742
1799.22545	0.0209583268
1797.29702	0.0212009046
1795.36859	0.0214854181
1793.44016	0.0218286682
1791.51173	0.0221916120
1789.58330	0.0225569587
1787.65487	0.0229665227
1785.72644	0.0234040655
1783.79801	0.0238335188
1781.86958	0.0242835432
1779.94115	0.0248065479
1778.01272	0.0254600532
1776.08429	0.0262728054
1774.15586	0.0271743201
1772.22743	0.0280341357
1770.29900	0.0288080722
1768.37057	0.0296163671
1766.44214	0.0304150376
1764.51371	0.0312264990
1762.58528	0.0321037769
1760.65685	0.0329979099
1758.72842	0.0339411609
1756.79999	0.0349564850
1754.87156	0.0359888449
1752.94312	0.0371080376
1751.01469	0.0383106135
1749.08626	0.0395410806
1747.15783	0.0408465303
1745.22940	0.0422202200
1743.30097	0.0436696187
1741.37254	0.0452305824
1739.44411	0.0468993075
1737.51568	0.0486394092
1735.58725	0.0505742542
1733.65882	0.0526398905
1731.73039	0.0547452047
1729.80196	0.0570319742
1727.87353	0.0594674945
1725.94510	0.0620295219
1724.01667	0.0647407994
1722.08824	0.0675814822
1720.15981	0.0705918744
1718.23138	0.0738340467
1716.30295	0.0772189349
1714.37452	0.0807884857
1712.44609	0.0845885798
1710.51766	0.0885879919
1708.58923	0.0927815959
1706.66080	0.0971939415
1704.73237	0.1017877758
1702.80394	0.1065866053
1700.87551	0.1116932034
1698.94708	0.1169243976
1697.01865	0.1224278584
1695.09022	0.1281828433
1693.16179	0.1340424269
1691.23336	0.1401501298
1689.30493	0.1464056373
1687.37650	0.1527907848
1685.44807	0.1594453752
1683.51963	0.1662193537
1681.59120	0.1730712503
1679.66277	0.1800936311
1677.73434	0.1872100979
1675.80591	0.1944457144
1673.87748	0.2017112821
1671.94905	0.2090336233
1670.02062	0.2164597511
1668.09219	0.2238893658
1666.16376	0.2312993109
1664.23533	0.2387142181
1662.30690	0.2460666150
1660.37847	0.2533001006
1658.45004	0.2603857219
1656.52161	0.2672487199
1654.59318	0.2739966512
1652.66475	0.2805083096
1650.73632	0.2865414321
1648.80789	0.2922468781
1646.87946	0.2975104451
1644.95103	0.3020860553
1643.02260	0.3059265912
1641.09417	0.3089639544
1639.16574	0.3110484481
1637.23731	0.3121719360
1635.30888	0.3122667074
1633.38045	0.3112171590
1631.45202	0.3091073334
1629.52359	0.3059107363
1627.59516	0.3016141653
1625.66673	0.2963203490
1623.73830	0.2901832759
1621.80987	0.2832836509
1619.88144	0.2758068144
1617.95301	0.2679860592
1616.02457	0.2598575652
1614.09614	0.2515501082
1612.16771	0.2432981730
1610.23928	0.2350989729
1608.31085	0.2270088345
1606.38242	0.2191171795
1604.45399	0.2114811093
1602.52556	0.2041331530
1600.59713	0.1970954090
1598.66870	0.1903853118
1596.74027	0.1839987487
1594.81184	0.1779175550
1592.88341	0.1721159369
1590.95498	0.1665932387
1589.02655	0.1613864601
1587.09812	0.1565770507
1585.16969	0.1522431225
1583.24126	0.1483643353
1581.31283	0.1447928101
1579.38440	0.1413765103
1577.45597	0.1381394863
1575.52754	0.1350236833
1573.59911	0.1320043802
1571.67068	0.1292395294
1569.74225	0.1266499609
1567.81382	0.1241622344
1565.88539	0.1218454316
1563.95696	0.1196487918
1562.02853	0.1175624877
1560.10010	0.1156708896
1558.17167	0.1138284057
1556.24324	0.1120630577
1554.31481	0.1104971170
1552.38638	0.1089925244
1550.45795	0.1075784117
1548.52952	0.1062453836
1546.60108	0.1049809381
1544.67265	0.1037586629
1542.74422	0.1025626585
1540.81579	0.1014673114
1538.88736	0.1004369184
1536.95893	0.0994564518
1535.03050	0.0986493304
1533.10207	0.0978795141
1531.17364	0.0970649272
1529.24521	0.0962969735
1527.31678	0.0955717266
1525.38835	0.0948583782
1523.45992	0.0941865891
1521.53149	0.0935811773
1519.60306	0.0929318741
1517.67463	0.0923287868
1515.74620	0.0917627886
1513.81777	0.0912063718
1511.88934	0.0906797275
1509.96091	0.0901578665
1508.03248	0.0897227377
1506.10405	0.0893132314
1504.17562	0.0888459161
1502.24719	0.0884617940
1500.31876	0.0881194547
1498.39033	0.0877691209
1496.46190	0.0874311253
1494.53347	0.0870682076
1492.60504	0.0867406577
1490.67661	0.0864638537
1488.74818	0.0861699283
1486.81975	0.0858868286
1484.89132	0.0856218264
1482.96289	0.0853767991
1481.03446	0.0851379335
1479.10603	0.0848910064
1477.17759	0.0846253186
1475.24916	0.0843098164
1473.32073	0.0839704797
1471.39230	0.0836130232
1469.46387	0.0833040178
1467.53544	0.0830949023
1465.60701	0.0829387754
1463.67858	0.0827654749
1461.75015	0.0825823843
1459.82172	0.0824374557
1457.89329	0.0823683888
1455.96486	0.0822698548
1454.03643	0.0821439549
1452.10800	0.0820652694
1450.17957	0.0819378048
1448.25114	0.0817608982
1446.32271	0.0815480575
1444.39428	0.0813451856
1442.46585	0.0811818838
1440.53742	0.0810545459
1438.60899	0.0810022950
1436.68056	0.0810061023
1434.75213	0.0809724107
1432.82370	0.0809703842
1430.89527	0.0809862614
1428.96684	0.0809672028
1427.03841	0.0809197053
1425.10998	0.0808586702
1423.18155	0.0807589591
1421.25312	0.0806560591
1419.32469	0.0805673003
1417.39626	0.0804346576
1415.46783	0.0803443864
1413.53940	0.0803068280
1411.61097	0.0802899152
1409.68253	0.0802775547
1407.75410	0.0802678391
1405.82567	0.0802637860
1403.89724	0.0802443251
1401.96881	0.0802226216
1400.04038	0.0802297220
1398.11195	0.0802390948
1396.18352	0.0802698955
1394.25509	0.0803175718
1392.32666	0.0803280994
1390.39823	0.0803176984
1388.46980	0.0802463219
1386.54137	0.0800742134
1384.61294	0.0799205676
1382.68451	0.0799291208
1380.75608	0.0800308287
1378.82765	0.0801040977
1376.89922	0.0801308677
1374.97079	0.0801593587
1373.04236	0.0801757649
1371.11393	0.0801670477
1369.18550	0.0801567063
1367.25707	0.0801397413
1365.32864	0.0801315531
1363.40021	0.0801473036
1361.47178	0.0801591352
1359.54335	0.0801652744
1357.61492	0.0801799372
1355.68649	0.0801980868
1353.75806	0.0802203789
1351.82963	0.0802500248
1349.90120	0.0802857131
1347.97277	0.0803259537
1346.04434	0.0803675652
1344.11591	0.0804089308
1342.18748	0.0804519504
1340.25904	0.0804702416
1338.33061	0.0804232582
1336.40218	0.0803471282
1334.47375	0.0803135261
1332.54532	0.0803605840
1330.61689	0.0804746002
1328.68846	0.0805889294
1326.76003	0.0806555301
1324.83160	0.0806829259
1322.90317	0.0806939006
1320.97474	0.0807112902
1319.04631	0.0807380080
1317.11788	0.0807646364
1315.18945	0.0807962194
1313.26102	0.0808332264
1311.33259	0.0808703378
1309.40416	0.0809021145
1307.47573	0.0809168667
1305.54730	0.0809275284
1303.61887	0.0809592158
1301.69044	0.0810051337
1299.76201	0.0810485557
1297.83358	0.0810850263
1295.90515	0.0811182857
1293.97672	0.0811560452
1292.04829	0.0811965838
1290.11986	0.0812369660
1288.19143	0.0812815055
1286.26300	0.0813256428
1284.33457	0.0813655406
1282.40614	0.0814042240
1280.47771	0.0814406350
1278.54928	0.0814791024
1276.62085	0.0815183893
1274.69242	0.0815507770
1272.76399	0.0815582126
1270.83555	0.0815092698
1268.90712	0.0813783109
1266.97869	0.0811921805
1265.05026	0.0810273439
1263.12183	0.0809597149
1261.19340	0.0810203850
1259.26497	0.0811753944
1257.33654	0.0813607946
1255.40811	0.0815311000
1253.47968	0.0816681385
1251.55125	0.0817723721
1249.62282	0.0818514973
1247.69439	0.0819024146
1245.76596	0.0819259882
1243.83753	0.0819321126
1241.90910	0.0819270462
1239.98067	0.0819146037
1238.05224	0.0819024444
1236.12381	0.0818879455
1234.19538	0.0818761587
1232.26695	0.0818671882
1230.33852	0.0818525329
1228.41009	0.0818180889
1226.48166	0.0817283764
1224.55323	0.0815849751
1222.62480	0.0814918727
1220.69637	0.0815170482
1218.76794	0.0815973133
1216.83951	0.0816642269
1214.91108	0.0817005634
1212.98265	0.0817110017
1211.05422	0.0817123726
1209.12579	0.0817117840
1207.19736	0.0817114040
1205.26893	0.0817157850
1203.34049	0.0817272812
1201.41206	0.0817431509
1199.48363	0.0817386508
1197.55520	0.0817518681
1195.62677	0.0817677751
1193.69834	0.0817896500
1191.76991	0.0818163678
1189.84148	0.0818464980
1187.91305	0.0818740651
1185.98462	0.0818992257
1184.05619	0.0819277391
1182.12776	0.0819614977
1180.19933	0.0820070207
1178.27090	0.0820609853
1176.34247	0.0821100846
1174.41404	0.0821578428
1172.48561	0.0822100118
1170.55718	0.0822640061
1168.62875	0.0823232010
1166.70032	0.0823858455
1164.77189	0.0824442729
1162.84346	0.0824976712
1160.91503	0.0825461596
1158.98660	0.0825932771
1157.05817	0.0826439708
1155.12974	0.0826958194
1153.20131	0.0827499107
1151.27288	0.0828054398
1149.34445	0.0828562155
1147.41602	0.0829042494
1145.48759	0.0829541609
1143.55916	0.0830081180
1141.63073	0.0830686986
1139.70230	0.0831328928
1137.77387	0.0832028985
1135.84544	0.0832851082
1133.91700	0.0833754912
1131.98857	0.0834691897
1130.06014	0.0835611224
1128.13171	0.0836447477
1126.20328	0.0837231502
1124.27485	0.0837965459
1122.34642	0.0838627368
1120.41799	0.0839309692
1118.48956	0.0840077028
1116.56113	0.0840960070
1114.63270	0.0841995999
1112.70427	0.0843154714
1110.77584	0.0844462216
1108.84741	0.0845934600
1106.91898	0.0847463757
1104.99055	0.0849036276
1103.06212	0.0850701034
1101.13369	0.0852449536
1099.20526	0.0854309052
1097.27683	0.0856250077
1095.34840	0.0858220980
1093.41997	0.0860261321
1091.49154	0.0862362832
1089.56311	0.0864521638
1087.63468	0.0866786093
1085.70625	0.0869081840
1083.77782	0.0871361345
1081.84939	0.0873663872
1079.92096	0.0875993297
1077.99253	0.0878404155
1076.06410	0.0880912691
1074.13567	0.0883439854
1072.20724	0.0886013582
1070.27881	0.0888661519
1068.35038	0.0891355872
1066.42195	0.0894129574
1064.49351	0.0896965489
1062.56508	0.0899850056
1060.63665	0.0902830511
1058.70822	0.0905883908
1056.77979	0.0909007639
1054.85136	0.0912253484
1052.92293	0.0915623158
1050.99450	0.0919096768
1049.06607	0.0922620669
1047.13764	0.0926161781
1045.20921	0.0929804221
1043.28078	0.0933538005
1041.35235	0.0937307402
1039.42392	0.0941180065
1037.49549	0.0945176259
1035.56706	0.0949265659
1033.63863	0.0953498855
1031.71020	0.0957896858
1029.78177	0.0962445065
1027.85334	0.0967127383
1025.92491	0.0971896946
1023.99648	0.0976773277
1022.06805	0.0981835201
1020.13962	0.0987163633
1018.21119	0.0992837548
1016.28276	0.0998815075
1014.35433	0.1005024612
1012.42590	0.1011514887
1010.49747	0.1018254757
1008.56904	0.1025166363
1006.64061	0.1032296196
1004.71218	0.1039631739
1002.78375	0.1047082171
1000.85532	0.1054652929
998.92689	0.1062399969
996.99845	0.1070360839
995.07002	0.1078594178
993.14159	0.1087100133
991.21316	0.1095796451
989.28473	0.1104670018
987.35630	0.1113790944
985.42787	0.1123203263
983.49944	0.1132930070
981.57101	0.1142949760
979.64258	0.1153263077
977.71415	0.1163937673
975.78572	0.1174942851
973.85729	0.1186215505
971.92886	0.1197815165
970.00043	0.1209817380
968.07200	0.1222265363
966.14357	0.1235162690
964.21514	0.1248447672
962.28671	0.1262179315
960.35828	0.1276472807
958.42985	0.1291314811
956.50142	0.1306700259
954.57299	0.1322609633
952.64456	0.1339027733
950.71613	0.1356084347
948.78770	0.1373779625
946.85927	0.1391952485
944.93084	0.1410561353
943.00241	0.1429616809
941.07398	0.1449207664
939.14555	0.1469480842
937.21712	0.1490371972
935.28869	0.1511808038
933.36026	0.1533830166
931.43183	0.1556428224
929.50340	0.1579709947
927.57496	0.1603740901
925.64653	0.1628420055
923.71810	0.1653771251
921.78967	0.1679755300
919.86124	0.1706289649
917.93281	0.1733453870
916.00438	0.1761238277
914.07595	0.1789713949
912.14752	0.1819004864
910.21909	0.1848960221
908.29066	0.1879497916
906.36223	0.1910632998
904.43380	0.1942334771
902.50537	0.1974773407
900.57694	0.2008029222
898.64851	0.2041940391
